'Id: "" Comment: "" Operator: "Lab Manager" Anode: "Cu" Scantype: "Coupled TwoTheta/Theta (VDO)" TimePerStep: "92.00056" 
6.0001 2.296
6.0308 3.339
6.0615 1.795
6.0921 3.517
6.1228 3.021
6.1535 1.970
6.1842 2.294
6.2149 2.576
6.2455 2.694
6.2762 2.276
6.3069 1.885
6.3376 2.076
6.3682 1.623
6.3989 1.936
6.4296 2.180
6.4603 1.708
6.4910 1.418
6.5216 1.518
6.5523 1.649
6.5830 1.439
6.6137 1.759
6.6444 1.194
6.6750 1.619
6.7057 1.918
6.7364 1.920
6.7671 1.551
6.7978 1.974
6.8284 1.787
6.8591 1.456
6.8898 1.712
6.9205 1.523
6.9511 2.104
6.9818 1.969
7.0125 1.537
7.0432 2.233
7.0739 1.581
7.1045 1.916
7.1352 1.618
7.1659 1.688
7.1966 1.479
7.2273 1.213
7.2579 1.806
7.2886 1.778
7.3193 1.868
7.3500 1.802
7.3807 1.338
7.4113 1.696
7.4420 1.669
7.4727 1.471
7.5034 1.643
7.5340 1.795
7.5647 1.648
7.5954 1.768
7.6261 1.708
7.6568 1.569
7.6874 1.526
7.7181 1.411
7.7488 1.551
7.7795 1.851
7.8102 1.589
7.8408 1.472
7.8715 1.733
7.9022 1.523
7.9329 1.399
7.9636 1.416
7.9942 1.699
8.0249 1.597
8.0556 1.303
8.0863 1.697
8.1169 1.508
8.1476 1.605
8.1783 1.570
8.2090 1.472
8.2397 1.367
8.2703 1.595
8.3010 1.391
8.3317 1.469
8.3624 1.436
8.3931 1.505
8.4237 1.507
8.4544 1.624
8.4851 1.434
8.5158 1.425
8.5465 1.373
8.5771 1.405
8.6078 1.491
8.6385 1.318
8.6692 1.443
8.6998 1.516
8.7305 1.721
8.7612 1.430
8.7919 1.690
8.8226 1.421
8.8532 1.364
8.8839 1.636
8.9146 1.352
8.9453 1.348
8.9760 1.367
9.0066 1.192
9.0373 1.255
9.0680 1.138
9.0987 1.297
9.1294 1.403
9.1600 1.155
9.1907 1.293
9.2214 1.178
9.2521 1.387
9.2827 1.262
9.3134 1.069
9.3441 1.252
9.3748 1.259
9.4055 1.087
9.4361 1.173
9.4668 1.302
9.4975 1.281
9.5282 1.167
9.5589 1.083
9.5895 1.229
9.6202 1.260
9.6509 1.146
9.6816 1.083
9.7123 0.854
9.7429 0.938
9.7736 1.198
9.8043 1.177
9.8350 1.239
9.8656 1.052
9.8963 1.156
9.9270 1.083
9.9577 1.073
9.9884 0.927
10.0190 1.052
10.0497 1.083
10.0804 1.125
10.1111 1.177
10.1418 0.990
10.1724 0.969
10.2031 1.281
10.2338 1.031
10.2645 1.000
10.2952 0.990
10.3258 0.948
10.3565 1.114
10.3872 0.990
10.4179 1.021
10.4485 0.854
10.4792 0.979
10.5099 1.052
10.5406 1.125
10.5713 0.906
10.6019 1.042
10.6326 0.990
10.6633 1.115
10.6940 1.104
10.7247 1.021
10.7553 1.000
10.7860 1.000
10.8167 1.010
10.8474 0.979
10.8781 0.833
10.9087 0.979
10.9394 0.937
10.9701 0.844
11.0008 0.927
11.0314 0.896
11.0621 0.812
11.0928 1.073
11.1235 0.833
11.1542 0.865
11.1848 0.781
11.2155 0.760
11.2462 0.906
11.2769 0.771
11.3076 0.823
11.3382 0.885
11.3689 1.000
11.3996 0.896
11.4303 0.854
11.4610 0.948
11.4916 0.854
11.5223 0.990
11.5530 0.719
11.5837 0.833
11.6143 0.927
11.6450 0.740
11.6757 0.771
11.7064 0.667
11.7371 0.885
11.7677 0.781
11.7984 0.948
11.8291 0.792
11.8598 0.771
11.8905 0.885
11.9211 0.823
11.9518 0.667
11.9825 0.844
12.0132 0.958
12.0439 0.927
12.0745 0.781
12.1052 0.771
12.1359 0.740
12.1666 0.833
12.1972 0.802
12.2279 0.708
12.2586 0.865
12.2893 0.865
12.3200 0.875
12.3506 0.615
12.3813 0.802
12.4120 0.698
12.4427 0.719
12.4734 0.740
12.5040 0.781
12.5347 0.885
12.5654 0.802
12.5961 0.719
12.6268 0.844
12.6574 0.750
12.6881 0.698
12.7188 0.719
12.7495 0.656
12.7801 0.771
12.8108 0.698
12.8415 0.823
12.8722 0.823
12.9029 0.708
12.9335 0.719
12.9642 0.740
12.9949 0.781
13.0256 0.760
13.0563 0.740
13.0869 0.583
13.1176 0.781
13.1483 0.656
13.1790 0.656
13.2097 0.750
13.2403 0.698
13.2710 0.521
13.3017 0.677
13.3324 0.698
13.3630 0.563
13.3937 0.594
13.4244 0.562
13.4551 0.594
13.4858 0.729
13.5164 0.573
13.5471 0.667
13.5778 0.583
13.6085 0.615
13.6392 0.542
13.6698 0.729
13.7005 0.667
13.7312 0.521
13.7619 0.781
13.7926 0.552
13.8232 0.771
13.8539 0.594
13.8846 0.542
13.9153 0.417
13.9459 0.510
13.9766 0.646
14.0073 0.740
14.0380 0.531
14.0687 0.583
14.0993 0.615
14.1300 0.469
14.1607 0.604
14.1914 0.708
14.2221 0.740
14.2527 0.500
14.2834 0.583
14.3141 0.521
14.3448 0.531
14.3755 0.531
14.4061 0.510
14.4368 0.656
14.4675 0.521
14.4982 0.750
14.5288 0.719
14.5595 0.885
14.5902 1.042
14.6209 1.917
14.6516 3.333
14.6822 2.719
14.7129 1.448
14.7436 0.802
14.7743 0.688
14.8050 0.646
14.8356 0.625
14.8663 0.552
14.8970 0.677
14.9277 0.760
14.9584 0.604
14.9890 0.562
15.0197 0.604
15.0504 0.687
15.0811 0.438
15.1117 0.469
15.1424 0.708
15.1731 0.510
15.2038 0.635
15.2345 0.542
15.2651 0.521
15.2958 0.667
15.3265 0.323
15.3572 0.687
15.3879 0.427
15.4185 0.542
15.4492 0.438
15.4799 0.542
15.5106 0.469
15.5413 0.500
15.5719 0.542
15.6026 0.531
15.6333 0.490
15.6640 0.625
15.6946 0.490
15.7253 0.469
15.7560 0.510
15.7867 0.583
15.8174 0.615
15.8480 0.604
15.8787 0.531
15.9094 0.552
15.9401 0.427
15.9708 0.344
16.0014 0.490
16.0321 0.438
16.0628 0.375
16.0935 0.583
16.1242 0.427
16.1548 0.542
16.1855 0.490
16.2162 0.490
16.2469 0.698
16.2775 0.469
16.3082 0.458
16.3389 0.594
16.3696 0.583
16.4003 0.521
16.4309 0.406
16.4616 0.615
16.4923 0.594
16.5230 0.448
16.5537 0.458
16.5843 0.479
16.6150 0.625
16.6457 0.698
16.6764 0.573
16.7071 0.667
16.7377 0.656
16.7684 0.792
16.7991 0.927
16.8298 1.385
16.8604 1.781
16.8911 3.281
16.9218 5.854
16.9525 5.458
16.9832 3.333
17.0138 1.396
17.0445 0.906
17.0752 0.698
17.1059 0.583
17.1366 0.656
17.1672 0.531
17.1979 0.521
17.2286 0.615
17.2593 0.479
17.2900 0.552
17.3206 0.417
17.3513 0.521
17.3820 0.448
17.4127 0.438
17.4433 0.438
17.4740 0.333
17.5047 0.417
17.5354 0.542
17.5661 0.510
17.5967 0.563
17.6274 0.490
17.6581 0.448
17.6888 0.490
17.7195 0.542
17.7501 0.448
17.7808 0.521
17.8115 0.521
17.8422 0.479
17.8729 0.479
17.9035 0.510
17.9342 0.479
17.9649 0.542
17.9956 0.427
18.0262 0.552
18.0569 0.521
18.0876 0.427
18.1183 0.469
18.1490 0.448
18.1796 0.521
18.2103 0.437
18.2410 0.521
18.2717 0.427
18.3024 0.458
18.3330 0.469
18.3637 0.542
18.3944 0.406
18.4251 0.396
18.4558 0.542
18.4864 0.510
18.5171 0.448
18.5478 0.510
18.5785 0.406
18.6091 0.500
18.6398 0.448
18.6705 0.417
18.7012 0.510
18.7319 0.531
18.7625 0.521
18.7932 0.510
18.8239 0.406
18.8546 0.458
18.8853 0.604
18.9159 0.479
18.9466 0.437
18.9773 0.427
19.0080 0.469
19.0387 0.552
19.0693 0.427
19.1000 0.510
19.1307 0.406
19.1614 0.437
19.1920 0.458
19.2227 0.479
19.2534 0.521
19.2841 0.437
19.3148 0.625
19.3454 0.708
19.3761 0.417
19.4068 0.365
19.4375 0.510
19.4682 0.437
19.4988 0.427
19.5295 0.469
19.5602 0.521
19.5909 0.385
19.6216 0.365
19.6522 0.448
19.6829 0.385
19.7136 0.396
19.7443 0.604
19.7749 0.427
19.8056 0.458
19.8363 0.448
19.8670 0.531
19.8977 0.542
19.9283 0.542
19.9590 0.625
19.9897 0.344
20.0204 0.479
20.0511 0.458
20.0817 0.531
20.1124 0.583
20.1431 0.594
20.1738 0.542
20.2045 0.510
20.2351 0.323
20.2658 0.510
20.2965 0.479
20.3272 0.625
20.3578 0.490
20.3885 0.615
20.4192 0.510
20.4499 0.396
20.4806 0.333
20.5112 0.385
20.5419 0.594
20.5726 0.562
20.6033 0.521
20.6340 0.583
20.6646 0.542
20.6953 0.510
20.7260 0.500
20.7567 0.448
20.7874 0.490
20.8180 0.448
20.8487 0.438
20.8794 0.448
20.9101 0.552
20.9407 0.500
20.9714 0.594
21.0021 0.385
21.0328 0.365
21.0635 0.510
21.0941 0.500
21.1248 0.521
21.1555 0.500
21.1862 0.396
21.2169 0.510
21.2475 0.573
21.2782 0.552
21.3089 0.500
21.3396 0.500
21.3703 0.510
21.4009 0.604
21.4316 0.417
21.4623 0.448
21.4930 0.479
21.5236 0.552
21.5543 0.510
21.5850 0.542
21.6157 0.812
21.6464 0.729
21.6770 0.865
21.7077 1.052
21.7384 0.625
21.7691 0.708
21.7998 0.583
21.8304 0.563
21.8611 0.573
21.8918 0.448
21.9225 0.469
21.9532 0.510
21.9838 0.562
22.0145 0.625
22.0452 0.542
22.0759 0.406
22.1065 0.542
22.1372 0.521
22.1679 0.708
22.1986 0.552
22.2293 0.521
22.2599 0.656
22.2906 0.583
22.3213 0.500
22.3520 0.521
22.3827 0.448
22.4133 0.531
22.4440 0.708
22.4747 0.687
22.5054 0.635
22.5361 0.708
22.5667 0.719
22.5974 0.688
22.6281 0.656
22.6588 0.604
22.6894 0.708
22.7201 0.667
22.7508 0.667
22.7815 0.750
22.8122 0.687
22.8428 0.677
22.8735 0.594
22.9042 0.792
22.9349 0.896
22.9656 0.844
22.9962 0.906
23.0269 1.000
23.0576 1.052
23.0883 0.958
23.1190 0.969
23.1496 1.042
23.1803 1.021
23.2110 1.083
23.2417 1.104
23.2723 0.896
23.3030 1.146
23.3337 1.177
23.3644 1.219
23.3951 1.458
23.4257 1.208
23.4564 1.427
23.4871 1.604
23.5178 1.604
23.5485 1.760
23.5791 1.875
23.6098 2.292
23.6405 2.719
23.6712 2.938
23.7019 4.208
23.7325 4.458
23.7632 5.323
23.7939 7.041
23.8246 9.292
23.8552 14.584
23.8859 21.863
23.9166 34.570
23.9473 63.703
23.9780 120.597
24.0086 205.287
24.0393 204.392
24.0700 158.373
24.1007 109.762
24.1314 54.006
24.1620 28.095
24.1927 16.386
24.2234 11.843
24.2541 8.416
24.2848 6.802
24.3154 4.604
24.3461 4.063
24.3768 3.406
24.4075 2.906
24.4381 2.677
24.4688 2.344
24.4995 2.177
24.5302 1.938
24.5609 1.646
24.5915 1.937
24.6222 1.521
24.6529 1.802
24.6836 1.573
24.7143 1.438
24.7449 1.375
24.7756 1.427
24.8063 1.312
24.8370 1.448
24.8677 1.115
24.8983 1.104
24.9290 1.229
24.9597 1.114
24.9904 1.156
25.0210 1.062
25.0517 1.219
25.0824 1.021
25.1131 0.917
25.1438 0.927
25.1744 0.948
25.2051 0.812
25.2358 1.052
25.2665 1.010
25.2972 0.885
25.3278 0.677
25.3585 0.802
25.3892 0.813
25.4199 0.813
25.4506 0.781
25.4812 0.708
25.5119 0.833
25.5426 0.833
25.5733 0.667
25.6039 0.760
25.6346 0.656
25.6653 0.771
25.6960 0.562
25.7267 0.792
25.7573 0.740
25.7880 0.521
25.8187 0.646
25.8494 0.802
25.8801 0.687
25.9107 0.625
25.9414 0.667
25.9721 0.573
26.0028 0.667
26.0335 0.677
26.0641 0.542
26.0948 0.646
26.1255 0.677
26.1562 0.594
26.1868 0.542
26.2175 0.531
26.2482 0.458
26.2789 0.604
26.3096 0.719
26.3402 0.563
26.3709 0.615
26.4016 0.708
26.4323 0.677
26.4630 0.708
26.4936 0.771
26.5243 0.740
26.5550 0.510
26.5857 0.687
26.6164 0.687
26.6470 0.625
26.6777 0.510
26.7084 0.625
26.7391 0.635
26.7697 0.594
26.8004 0.479
26.8311 0.479
26.8618 0.604
26.8925 0.604
26.9231 0.729
26.9538 0.573
26.9845 0.510
27.0152 0.615
27.0459 0.729
27.0765 0.656
27.1072 0.635
27.1379 0.646
27.1686 0.625
27.1993 0.729
27.2299 0.615
27.2606 0.552
27.2913 0.698
27.3220 0.562
27.3526 0.542
27.3833 0.531
27.4140 0.708
27.4447 0.531
27.4754 0.667
27.5060 0.562
27.5367 0.656
27.5674 0.750
27.5981 0.479
27.6288 0.635
27.6594 0.740
27.6901 0.781
27.7208 0.833
27.7515 0.604
27.7822 0.698
27.8128 0.635
27.8435 0.562
27.8742 0.771
27.9049 0.677
27.9355 0.604
27.9662 0.875
27.9969 0.625
28.0276 0.708
28.0583 0.594
28.0889 0.677
28.1196 0.802
28.1503 0.698
28.1810 0.781
28.2117 0.771
28.2423 0.823
28.2730 0.948
28.3037 0.740
28.3344 0.781
28.3651 0.573
28.3957 0.781
28.4264 0.802
28.4571 0.760
28.4878 0.615
28.5184 0.823
28.5491 0.677
28.5798 0.792
28.6105 0.750
28.6412 0.802
28.6718 0.854
28.7025 0.708
28.7332 0.844
28.7639 0.677
28.7946 0.865
28.8252 1.010
28.8559 0.833
28.8866 0.885
28.9173 0.927
28.9480 0.813
28.9786 0.927
29.0093 1.021
29.0400 1.021
29.0707 0.958
29.1013 0.875
29.1320 1.000
29.1627 1.125
29.1934 1.187
29.2241 1.635
29.2547 1.583
29.2854 1.958
29.3161 2.490
29.3468 3.188
29.3775 4.615
29.4081 6.239
29.4388 10.572
29.4695 20.092
29.5002 42.460
29.5309 60.908
29.5615 42.590
29.5922 36.206
29.6229 26.738
29.6536 12.469
29.6842 6.396
29.7149 4.000
29.7456 2.989
29.7763 2.583
29.8070 1.917
29.8376 1.792
29.8683 1.469
29.8990 1.354
29.9297 1.146
29.9604 1.177
29.9910 1.021
30.0217 0.948
30.0524 1.052
30.0831 0.813
30.1138 1.135
30.1444 1.052
30.1751 1.083
30.2058 1.031
30.2365 0.865
30.2671 0.990
30.2978 1.052
30.3285 0.833
30.3592 1.031
30.3899 0.854
30.4205 0.906
30.4512 0.813
30.4819 0.917
30.5126 1.000
30.5433 0.948
30.5739 0.917
30.6046 0.875
30.6353 0.719
30.6660 0.969
30.6967 0.823
30.7273 1.010
30.7580 0.844
30.7887 0.854
30.8194 1.083
30.8500 1.021
30.8807 0.823
30.9114 0.854
30.9421 0.813
30.9728 0.573
31.0034 0.917
31.0341 0.865
31.0648 0.708
31.0955 0.719
31.1262 0.667
31.1568 0.813
31.1875 0.698
31.2182 0.833
31.2489 0.698
31.2796 0.854
31.3102 0.573
31.3409 0.802
31.3716 0.823
31.4023 0.792
31.4329 0.740
31.4636 0.792
31.4943 0.583
31.5250 0.844
31.5557 0.750
31.5863 0.781
31.6170 0.750
31.6477 0.833
31.6784 0.708
31.7091 0.740
31.7397 0.635
31.7704 0.687
31.8011 0.740
31.8318 0.625
31.8625 0.688
31.8931 0.698
31.9238 0.792
31.9545 0.542
31.9852 0.844
32.0158 0.771
32.0465 0.729
32.0772 0.854
32.1079 0.812
32.1386 0.688
32.1692 0.760
32.1999 1.052
32.2306 0.865
32.2613 0.844
32.2920 1.125
32.3226 0.812
32.3533 0.875
32.3840 0.969
32.4147 0.760
32.4454 0.823
32.4760 0.802
32.5067 0.854
32.5374 0.917
32.5681 0.865
32.5987 0.740
32.6294 0.854
32.6601 0.896
32.6908 0.750
32.7215 0.854
32.7521 0.719
32.7828 0.781
32.8135 1.000
32.8442 0.885
32.8749 0.875
32.9055 0.917
32.9362 0.708
32.9669 0.865
32.9976 0.844
33.0283 0.948
33.0589 0.938
33.0896 0.750
33.1203 0.875
33.1510 0.854
33.1816 1.156
33.2123 1.063
33.2430 1.208
33.2737 1.063
33.3044 1.083
33.3350 0.979
33.3657 1.250
33.3964 1.042
33.4271 1.000
33.4578 1.313
33.4884 1.052
33.5191 1.042
33.5498 1.104
33.5805 1.344
33.6112 1.073
33.6418 1.281
33.6725 1.260
33.7032 1.781
33.7339 1.614
33.7645 1.833
33.7952 1.781
33.8259 2.219
33.8566 2.666
33.8873 2.958
33.9179 3.615
33.9486 4.896
33.9793 6.375
34.0100 7.270
34.0407 9.020
34.0713 12.176
34.1020 16.103
34.1327 25.428
34.1634 42.147
34.1941 69.651
34.2247 83.317
34.2554 66.662
34.2861 58.731
34.3168 49.335
34.3474 30.115
34.3781 19.592
34.4088 12.020
34.4395 8.166
34.4702 6.302
34.5008 5.136
34.5315 3.843
34.5622 2.833
34.5929 3.177
34.6236 2.614
34.6542 2.156
34.6849 2.052
34.7156 1.760
34.7463 1.667
34.7770 1.375
34.8076 1.437
34.8383 1.563
34.8690 1.229
34.8997 1.323
34.9303 1.135
34.9610 1.094
34.9917 0.979
35.0224 1.427
35.0531 1.125
35.0837 1.146
35.1144 1.135
35.1451 0.990
35.1758 1.021
35.2065 0.906
35.2371 0.917
35.2678 0.885
35.2985 1.073
35.3292 1.000
35.3599 1.042
35.3905 1.073
35.4212 0.990
35.4519 1.000
35.4826 1.083
35.5132 1.021
35.5439 0.823
35.5746 0.792
35.6053 0.812
35.6360 0.865
35.6666 0.750
35.6973 0.656
35.7280 0.865
35.7587 0.823
35.7894 0.844
35.8200 0.781
35.8507 0.656
35.8814 0.792
35.9121 0.854
35.9428 0.792
35.9734 0.771
36.0041 0.875
36.0348 0.844
36.0655 0.781
36.0961 0.760
36.1268 0.760
36.1575 0.750
36.1882 0.792
36.2189 0.708
36.2495 0.854
36.2802 0.990
36.3109 0.812
36.3416 0.802
36.3723 0.812
36.4029 0.594
36.4336 0.698
36.4643 0.844
36.4950 0.729
36.5257 0.729
36.5563 0.771
36.5870 0.781
36.6177 0.771
36.6484 0.667
36.6790 0.552
36.7097 0.812
36.7404 0.552
36.7711 0.573
36.8018 0.708
36.8324 0.594
36.8631 0.760
36.8938 0.469
36.9245 0.760
36.9552 0.573
36.9858 0.760
37.0165 0.625
37.0472 0.677
37.0779 0.573
37.1086 0.646
37.1392 0.740
37.1699 0.667
37.2006 0.698
37.2313 0.729
37.2619 0.708
37.2926 0.729
37.3233 0.854
37.3540 0.729
37.3847 0.771
37.4153 0.823
37.4460 0.542
37.4767 0.740
37.5074 0.583
37.5381 0.573
37.5687 0.646
37.5994 0.635
37.6301 0.719
37.6608 0.604
37.6915 0.469
37.7221 0.469
37.7528 0.740
37.7835 0.729
37.8142 0.740
37.8448 0.677
37.8755 0.531
37.9062 0.604
37.9369 0.948
37.9676 0.646
37.9982 0.979
38.0289 0.969
38.0596 0.813
38.0903 0.604
38.1210 0.885
38.1516 0.937
38.1823 0.688
38.2130 0.719
38.2437 0.844
38.2744 0.885
38.3050 1.021
38.3357 1.427
38.3664 2.021
38.3971 2.000
38.4277 1.854
38.4584 1.812
38.4891 1.583
38.5198 1.344
38.5505 1.146
38.5811 0.948
38.6118 0.833
38.6425 0.948
38.6732 0.823
38.7039 0.729
38.7345 0.698
38.7652 0.656
38.7959 0.656
38.8266 0.937
38.8573 0.708
38.8879 0.687
38.9186 0.750
38.9493 0.688
38.9800 0.729
39.0106 0.583
39.0413 0.760
39.0720 0.854
39.1027 0.552
39.1334 0.781
39.1640 0.698
39.1947 0.896
39.2254 0.698
39.2561 0.823
39.2868 0.625
39.3174 0.656
39.3481 0.625
39.3788 0.646
39.4095 0.656
39.4402 0.802
39.4708 0.750
39.5015 0.771
39.5322 0.719
39.5629 0.635
39.5935 0.667
39.6242 0.760
39.6549 0.521
39.6856 0.594
39.7163 0.625
39.7469 0.708
39.7776 0.823
39.8083 0.635
39.8390 0.708
39.8697 0.698
39.9003 0.677
39.9310 0.750
39.9617 0.760
39.9924 0.760
40.0231 0.677
40.0537 0.635
40.0844 0.552
40.1151 0.635
40.1458 0.781
40.1764 0.688
40.2071 0.646
40.2378 0.719
40.2685 0.781
40.2992 0.802
40.3298 0.635
40.3605 0.750
40.3912 0.667
40.4219 0.698
40.4526 0.854
40.4832 0.781
40.5139 0.865
40.5446 0.802
40.5753 0.906
40.6060 0.854
40.6366 0.719
40.6673 0.896
40.6980 1.021
40.7287 0.719
40.7593 0.854
40.7900 0.885
40.8207 0.885
40.8514 0.740
40.8821 0.771
40.9127 0.750
40.9434 0.865
40.9741 0.865
41.0048 0.854
41.0355 0.833
41.0661 0.865
41.0968 0.875
41.1275 0.781
41.1582 0.781
41.1889 0.719
41.2195 1.000
41.2502 1.094
41.2809 0.937
41.3116 0.854
41.3422 1.062
41.3729 0.740
41.4036 1.125
41.4343 0.948
41.4650 0.938
41.4956 1.114
41.5263 1.094
41.5570 1.052
41.5877 1.240
41.6184 1.188
41.6490 1.406
41.6797 1.271
41.7104 1.292
41.7411 1.740
41.7718 1.594
41.8024 1.823
41.8331 2.000
41.8638 2.281
41.8945 2.594
41.9251 3.135
41.9558 3.573
41.9865 4.594
42.0172 5.583
42.0479 6.812
42.0785 8.916
42.1092 12.688
42.1399 18.001
42.1706 26.511
42.2013 40.497
42.2319 48.142
42.2626 42.424
42.2933 35.511
42.3240 33.543
42.3547 28.935
42.3853 21.228
42.4160 13.739
42.4467 9.593
42.4774 7.250
42.5080 5.125
42.5387 4.313
42.5694 3.468
42.6001 2.989
42.6308 2.375
42.6614 2.146
42.6921 1.854
42.7228 1.833
42.7535 1.396
42.7842 1.479
42.8148 1.438
42.8455 1.313
42.8762 1.177
42.9069 1.167
42.9376 1.104
42.9682 1.271
42.9989 1.052
43.0296 1.052
43.0603 1.146
43.0909 0.990
43.1216 1.104
43.1523 0.906
43.1830 0.896
43.2137 0.813
43.2443 1.135
43.2750 0.948
43.3057 1.010
43.3364 0.885
43.3671 0.854
43.3977 0.885
43.4284 0.854
43.4591 0.823
43.4898 0.677
43.5205 1.083
43.5511 0.917
43.5818 0.813
43.6125 0.937
43.6432 0.719
43.6738 0.698
43.7045 0.854
43.7352 0.708
43.7659 0.906
43.7966 0.896
43.8272 0.740
43.8579 0.781
43.8886 0.927
43.9193 0.844
43.9500 0.844
43.9806 0.750
44.0113 0.719
44.0420 0.708
44.0727 0.885
44.1034 0.656
44.1340 0.750
44.1647 0.958
44.1954 0.885
44.2261 0.885
44.2567 0.906
44.2874 0.781
44.3181 0.708
44.3488 0.896
44.3795 0.792
44.4101 0.760
44.4408 0.844
44.4715 0.677
44.5022 0.729
44.5329 0.740
44.5635 0.667
44.5942 0.740
44.6249 0.865
44.6556 0.740
44.6863 0.687
44.7169 0.781
44.7476 0.823
44.7783 0.927
44.8090 0.906
44.8396 0.865
44.8703 0.979
44.9010 1.083
44.9317 1.052
44.9624 1.115
44.9930 1.063
45.0237 1.094
45.0544 1.042
45.0851 0.937
45.1158 0.802
45.1464 0.615
45.1771 0.646
45.2078 0.687
45.2385 0.802
45.2692 0.771
45.2998 0.542
45.3305 0.719
45.3612 0.708
45.3919 0.708
45.4225 0.698
45.4532 0.635
45.4839 0.781
45.5146 0.698
45.5453 0.594
45.5759 0.604
45.6066 0.490
45.6373 0.677
45.6680 0.625
45.6987 0.646
45.7293 0.729
45.7600 0.531
45.7907 0.562
45.8214 0.573
45.8521 0.615
45.8827 0.698
45.9134 0.677
45.9441 0.510
45.9748 0.687
46.0054 0.510
46.0361 0.823
46.0668 0.604
46.0975 0.646
46.1282 0.615
46.1588 0.708
46.1895 0.646
46.2202 0.854
46.2509 0.760
46.2816 0.656
46.3122 0.615
46.3429 0.635
46.3736 0.719
46.4043 0.594
46.4350 0.625
46.4656 0.646
46.4963 0.646
46.5270 0.687
46.5577 0.667
46.5883 0.646
46.6190 0.615
46.6497 0.531
46.6804 0.552
46.7111 0.667
46.7417 0.740
46.7724 0.677
46.8031 0.604
46.8338 0.615
46.8645 0.698
46.8951 0.719
46.9258 0.625
46.9565 0.729
46.9872 0.552
47.0179 0.562
47.0485 0.583
47.0792 0.927
47.1099 0.688
47.1406 0.688
47.1712 0.698
47.2019 0.750
47.2326 0.531
47.2633 0.594
47.2940 0.927
47.3246 0.760
47.3553 0.687
47.3860 0.865
47.4167 0.708
47.4474 0.708
47.4780 0.802
47.5087 0.854
47.5394 0.594
47.5701 0.740
47.6008 0.698
47.6314 0.750
47.6621 0.719
47.6928 0.698
47.7235 0.698
47.7541 0.823
47.7848 0.708
47.8155 0.688
47.8462 0.708
47.8769 0.781
47.9075 0.667
47.9382 0.917
47.9689 0.750
47.9996 0.896
48.0303 0.906
48.0609 0.677
48.0916 0.625
48.1223 0.802
48.1530 0.969
48.1837 0.823
48.2143 0.854
48.2450 0.906
48.2757 0.833
48.3064 0.865
48.3370 0.771
48.3677 0.927
48.3984 0.885
48.4291 0.792
48.4598 0.917
48.4904 1.083
48.5211 1.271
48.5518 1.115
48.5825 0.969
48.6132 1.198
48.6438 1.396
48.6745 1.417
48.7052 1.323
48.7359 1.604
48.7666 1.864
48.7972 2.208
48.8279 2.458
48.8586 3.188
48.8893 3.719
48.9199 4.333
48.9506 5.437
48.9813 6.406
49.0120 8.999
49.0427 11.698
49.0733 15.948
49.1040 25.154
49.1347 36.945
49.1654 43.955
49.1961 36.143
49.2267 28.615
49.2574 27.782
49.2881 28.470
49.3188 21.269
49.3495 14.582
49.3801 10.041
49.4108 6.948
49.4415 5.709
49.4722 4.125
49.5028 3.291
49.5335 2.666
49.5642 2.208
49.5949 2.313
49.6256 2.156
49.6562 1.656
49.6869 1.469
49.7176 1.427
49.7483 1.292
49.7790 1.292
49.8096 1.198
49.8403 1.125
49.8710 1.156
49.9017 0.896
49.9324 1.125
49.9630 1.000
49.9937 1.021
50.0244 1.114
50.0551 0.969
50.0857 0.875
50.1164 0.760
50.1471 0.969
50.1778 0.646
50.2085 0.802
50.2391 0.906
50.2698 0.823
50.3005 0.833
50.3312 0.875
50.3619 0.760
50.3925 0.802
50.4232 0.760
50.4539 0.906
50.4846 0.719
50.5153 0.698
50.5459 0.687
50.5766 0.687
50.6073 0.771
50.6380 0.719
50.6686 0.615
50.6993 0.708
50.7300 0.656
50.7607 0.677
50.7914 0.812
50.8220 0.719
50.8527 0.667
50.8834 0.865
50.9141 0.677
50.9448 0.646
50.9754 0.604
51.0061 0.594
51.0368 0.698
51.0675 0.667
51.0982 0.667
51.1288 0.698
51.1595 0.646
51.1902 0.719
51.2209 0.677
51.2515 0.625
51.2822 0.708
51.3129 0.625
51.3436 0.760
51.3743 0.823
51.4049 0.740
51.4356 0.646
51.4663 0.802
51.4970 0.615
51.5277 0.885
51.5583 0.688
51.5890 0.875
51.6197 0.854
51.6504 0.792
51.6811 0.646
51.7117 0.865
51.7424 0.729
51.7731 0.781
51.8038 0.729
51.8344 0.740
51.8651 0.594
51.8958 0.771
51.9265 0.646
51.9572 0.573
51.9878 0.552
52.0185 0.594
52.0492 0.677
52.0799 0.552
52.1106 0.792
52.1412 0.646
52.1719 0.802
52.2026 0.896
52.2333 0.833
52.2640 0.719
52.2946 1.052
52.3253 1.114
52.3560 1.229
52.3867 1.021
52.4173 1.115
52.4480 0.688
52.4787 0.750
52.5094 0.885
52.5401 0.771
52.5707 0.854
52.6014 0.750
52.6321 0.677
52.6628 0.594
52.6935 0.615
52.7241 0.687
52.7548 0.552
52.7855 0.583
52.8162 0.521
52.8469 0.448
52.8775 0.573
52.9082 0.510
52.9389 0.594
52.9696 0.781
53.0002 0.490
53.0309 0.479
53.0616 0.552
53.0923 0.562
53.1230 0.510
53.1536 0.583
53.1843 0.646
53.2150 0.615
53.2457 0.677
53.2764 0.646
53.3070 0.688
53.3377 0.635
53.3684 0.354
53.3991 0.615
53.4298 0.531
53.4604 0.833
53.4911 0.500
53.5218 0.563
53.5525 0.698
53.5831 0.771
53.6138 0.646
53.6445 0.635
53.6752 0.708
53.7059 0.635
53.7365 0.854
53.7672 0.469
53.7979 0.552
53.8286 0.521
53.8593 0.635
53.8899 0.625
53.9206 0.667
53.9513 0.542
53.9820 0.646
54.0127 0.583
54.0433 0.688
54.0740 0.719
54.1047 0.583
54.1354 0.583
54.1660 0.708
54.1967 0.667
54.2274 0.563
54.2581 0.781
54.2888 0.552
54.3194 0.615
54.3501 0.729
54.3808 0.667
54.4115 0.510
54.4422 0.667
54.4728 0.625
54.5035 0.573
54.5342 0.656
54.5649 0.854
54.5956 0.792
54.6262 0.698
54.6569 0.833
54.6876 0.792
54.7183 0.667
54.7489 0.771
54.7796 0.865
54.8103 0.927
54.8410 0.896
54.8717 0.917
54.9023 0.906
54.9330 0.844
54.9637 1.073
54.9944 1.010
55.0251 1.229
55.0557 1.448
55.0864 1.594
55.1171 1.646
55.1478 2.114
55.1785 2.114
55.2091 3.010
55.2398 3.156
55.2705 4.083
55.3012 5.302
55.3318 7.688
55.3625 10.155
55.3932 13.291
55.4239 16.374
55.4546 14.875
55.4852 12.230
55.5159 10.530
55.5466 10.280
55.5773 10.593
55.6080 8.417
55.6386 6.417
55.6693 4.261
55.7000 3.552
55.7307 2.729
55.7614 2.416
55.7920 1.739
55.8227 1.990
55.8534 1.365
55.8841 1.406
55.9147 1.260
55.9454 1.219
55.9761 1.063
56.0068 0.979
56.0375 1.063
56.0681 0.958
56.0988 0.812
56.1295 0.833
56.1602 0.813
56.1909 0.938
56.2215 0.792
56.2522 0.812
56.2829 0.708
56.3136 0.708
56.3443 0.781
56.3749 0.479
56.4056 0.656
56.4363 0.625
56.4670 0.771
56.4976 0.760
56.5283 0.813
56.5590 0.729
56.5897 0.667
56.6204 0.594
56.6510 0.625
56.6817 0.490
56.7124 0.708
56.7431 0.656
56.7738 0.760
56.8044 0.646
56.8351 0.698
56.8658 0.594
56.8965 0.552
56.9272 0.562
56.9578 0.812
56.9885 0.604
57.0192 0.583
57.0499 0.531
57.0805 0.729
57.1112 0.563
57.1419 0.490
57.1726 0.667
57.2033 0.594
57.2339 0.760
57.2646 0.490
57.2953 0.635
57.3260 0.615
57.3567 0.677
57.3873 0.740
57.4180 0.521
57.4487 0.708
57.4794 0.615
57.5101 0.677
57.5407 0.646
57.5714 0.771
57.6021 0.646
57.6328 0.760
57.6634 0.583
57.6941 0.604
57.7248 0.656
57.7555 0.521
57.7862 0.563
57.8168 0.563
57.8475 0.771
57.8782 0.812
57.9089 0.677
57.9396 0.719
57.9702 0.917
58.0009 0.781
58.0316 0.750
58.0623 0.906
58.0930 0.813
58.1236 0.854
58.1543 0.781
58.1850 1.156
58.2157 1.156
58.2463 1.302
58.2770 1.312
58.3077 2.219
58.3384 2.594
58.3691 2.521
58.3997 2.750
58.4304 2.521
58.4611 2.000
58.4918 2.063
58.5225 2.250
58.5531 1.969
58.5838 1.562
58.6145 1.583
58.6452 1.167
58.6759 0.990
58.7065 0.833
58.7372 0.625
58.7679 0.656
58.7986 0.687
58.8292 0.698
58.8599 0.833
58.8906 0.583
58.9213 0.562
58.9520 0.656
58.9826 0.604
59.0133 0.646
59.0440 0.708
59.0747 0.625
59.1054 0.604
59.1360 0.604
59.1667 0.583
59.1974 0.479
59.2281 0.615
59.2588 0.458
59.2894 0.437
59.3201 0.698
59.3508 0.635
59.3815 0.458
59.4121 0.656
59.4428 0.427
59.4735 0.490
59.5042 0.646
59.5349 0.594
59.5655 0.781
59.5962 0.594
59.6269 0.750
59.6576 0.729
59.6883 0.427
59.7189 0.677
59.7496 0.573
59.7803 0.552
59.8110 0.656
59.8417 0.677
59.8723 0.667
59.9030 0.760
59.9337 0.594
59.9644 0.625
59.9950 0.719
60.0257 0.656
60.0564 0.656
60.0871 0.552
60.1178 0.531
60.1484 0.594
60.1791 0.667
60.2098 0.802
60.2405 0.688
60.2712 0.708
60.3018 0.604
60.3325 0.708
60.3632 0.708
60.3939 0.781
60.4246 0.615
60.4552 0.542
60.4859 0.667
60.5166 0.812
60.5473 0.687
60.5779 0.792
60.6086 0.927
60.6393 0.667
60.6700 0.583
60.7007 0.833
60.7313 0.979
60.7620 1.062
60.7927 1.177
60.8234 1.250
60.8541 1.479
60.8847 1.604
60.9154 1.625
60.9461 1.896
60.9768 2.073
61.0075 2.604
61.0381 2.719
61.0688 3.208
61.0995 4.281
61.1302 6.104
61.1608 8.500
61.1915 12.989
61.2222 18.634
61.2529 23.019
61.2836 20.238
61.3142 13.948
61.3449 11.198
61.3756 11.730
61.4063 13.447
61.4370 12.520
61.4676 9.239
61.4983 5.969
61.5290 3.969
61.5597 3.094
61.5904 2.177
61.6210 1.906
61.6517 1.583
61.6824 1.365
61.7131 1.198
61.7437 1.281
61.7744 1.271
61.8051 1.010
61.8358 0.906
61.8665 0.771
61.8971 0.979
61.9278 0.865
61.9585 1.052
61.9892 0.896
62.0199 0.833
62.0505 0.958
62.0812 0.542
62.1119 0.661
62.1426 0.764
62.1733 0.761
62.2039 0.672
62.2346 0.778
62.2653 0.632
62.2960 0.773
62.3266 0.680
62.3573 0.527
62.3880 0.812
62.4187 0.774
62.4494 0.748
62.4800 0.733
62.5107 0.693
62.5414 0.677
62.5721 0.611
62.6028 0.757
62.6334 0.895
62.6641 0.803
62.6948 0.695
62.7255 0.598
62.7562 0.714
62.7868 0.737
62.8175 0.678
62.8482 0.618
62.8789 0.626
62.9095 0.736
62.9402 0.674
62.9709 0.758
63.0016 1.026
63.0323 0.751
63.0629 0.700
63.0936 0.791
63.1243 0.643
63.1550 0.702
63.1857 0.548
63.2163 0.793
63.2470 0.669
63.2777 0.751
63.3084 0.693
63.3391 0.887
63.3697 0.682
63.4004 0.695
63.4311 0.861
63.4618 0.605
63.4924 0.736
63.5231 0.812
63.5538 0.518
63.5845 0.614
63.6152 0.649
63.6458 0.641
63.6765 0.949
63.7072 0.578
63.7379 0.426
63.7686 0.606
63.7992 0.547
63.8299 0.764
63.8606 0.706
63.8913 0.778
63.9220 0.441
63.9526 0.454
63.9833 0.642
64.0140 0.812
64.0447 0.620
64.0753 0.448
64.1060 0.463
64.1367 0.615
64.1674 0.425
64.1981 0.550
64.2287 0.152
64.2594 0.673
64.2901 0.454
64.3208 0.602
64.3515 0.405
64.3821 0.424
64.4128 0.494
64.4435 0.364
64.4742 0.383
64.5049 0.348
64.5355 0.246
64.5662 0.262
64.5969 0.070
64.6276 0.000
64.6582 0.000
64.6889 0.089
64.7196 0.293
64.7503 0.216
64.7810 0.121
64.8116 0.138
64.8423 0.160
64.8730 0.000
64.9037 0.000
64.9344 0.000
64.9650 0.000
64.9957 0.000
