'Id: "" Comment: "" Operator: "Lab Manager" Anode: "Cu" Scantype: "Coupled TwoTheta/Theta (VDO)" TimePerStep: "92.00054" 
6.0001 1.148
6.0308 1.558
6.0615 1.657
6.0921 2.930
6.1228 1.510
6.1535 2.160
6.1842 2.134
6.2149 1.932
6.2455 1.306
6.2762 2.203
6.3069 1.786
6.3376 2.016
6.3682 1.986
6.3989 1.420
6.4296 1.533
6.4603 1.281
6.4910 1.736
6.5216 1.539
6.5523 1.126
6.5830 1.971
6.6137 1.566
6.6444 1.706
6.6750 1.451
6.7057 1.297
6.7364 1.435
6.7671 1.569
6.7978 1.507
6.8284 1.430
6.8591 1.356
6.8898 1.251
6.9205 1.571
6.9511 1.450
6.9818 1.701
7.0125 1.459
7.0432 1.442
7.0739 1.643
7.1045 1.103
7.1352 1.450
7.1659 1.323
7.1966 1.449
7.2273 1.453
7.2579 1.269
7.2886 1.704
7.3193 1.059
7.3500 1.333
7.3807 1.396
7.4113 1.493
7.4420 1.209
7.4727 1.457
7.5034 1.614
7.5340 1.569
7.5647 1.465
7.5954 1.291
7.6261 1.333
7.6568 1.181
7.6874 1.182
7.7181 1.507
7.7488 1.415
7.7795 1.189
7.8102 1.347
7.8408 1.298
7.8715 1.467
7.9022 1.219
7.9329 1.346
7.9636 1.298
7.9942 1.529
8.0249 1.234
8.0556 1.251
8.0863 1.415
8.1169 1.278
8.1476 1.363
8.1783 1.342
8.2090 1.447
8.2397 1.003
8.2703 1.420
8.3010 1.031
8.3317 1.259
8.3624 1.374
8.3931 1.211
8.4237 1.264
8.4544 1.224
8.4851 1.193
8.5158 1.102
8.5465 1.087
8.5771 1.345
8.6078 1.219
8.6385 1.200
8.6692 0.974
8.6998 0.945
8.7305 1.070
8.7612 1.141
8.7919 1.310
8.8226 1.100
8.8532 1.091
8.8839 0.909
8.9146 1.070
8.9453 1.022
8.9760 1.031
9.0066 1.136
9.0373 1.189
9.0680 0.995
9.0987 0.879
9.1294 0.986
9.1600 1.166
9.1907 0.913
9.2214 0.995
9.2521 0.839
9.2827 0.952
9.3134 0.888
9.3441 1.040
9.3748 0.942
9.4055 0.939
9.4361 0.984
9.4668 1.063
9.4975 0.667
9.5282 0.885
9.5589 1.114
9.5895 0.979
9.6202 0.885
9.6509 0.865
9.6816 0.729
9.7123 0.885
9.7429 0.885
9.7736 0.781
9.8043 0.594
9.8350 0.865
9.8656 0.885
9.8963 0.812
9.9270 0.854
9.9577 0.969
9.9884 0.823
10.0190 0.833
10.0497 0.802
10.0804 0.740
10.1111 0.802
10.1418 0.833
10.1724 0.885
10.2031 0.771
10.2338 0.781
10.2645 0.740
10.2952 0.677
10.3258 0.771
10.3565 1.031
10.3872 0.802
10.4179 0.875
10.4485 0.719
10.4792 0.719
10.5099 0.781
10.5406 0.854
10.5713 0.812
10.6019 0.885
10.6326 0.823
10.6633 0.771
10.6940 0.604
10.7247 0.729
10.7553 0.656
10.7860 0.646
10.8167 0.802
10.8474 0.906
10.8781 0.708
10.9087 0.594
10.9394 0.667
10.9701 0.698
11.0008 0.698
11.0314 0.708
11.0621 0.708
11.0928 0.844
11.1235 0.740
11.1542 0.510
11.1848 0.719
11.2155 0.656
11.2462 0.719
11.2769 0.771
11.3076 0.667
11.3382 0.885
11.3689 0.844
11.3996 0.792
11.4303 0.615
11.4610 0.687
11.4916 0.812
11.5223 0.625
11.5530 0.573
11.5837 0.667
11.6143 0.729
11.6450 0.698
11.6757 0.646
11.7064 0.781
11.7371 0.656
11.7677 0.677
11.7984 0.646
11.8291 0.510
11.8598 0.625
11.8905 0.646
11.9211 0.729
11.9518 0.677
11.9825 0.677
12.0132 0.656
12.0439 0.812
12.0745 0.677
12.1052 0.594
12.1359 0.531
12.1666 0.562
12.1972 0.479
12.2279 0.740
12.2586 0.573
12.2893 0.625
12.3200 0.594
12.3506 0.740
12.3813 0.708
12.4120 0.531
12.4427 0.708
12.4734 0.594
12.5040 0.542
12.5347 0.625
12.5654 0.583
12.5961 0.604
12.6268 0.563
12.6574 0.688
12.6881 0.729
12.7188 0.615
12.7495 0.646
12.7801 0.469
12.8108 0.583
12.8415 0.646
12.8722 0.635
12.9029 0.812
12.9335 0.573
12.9642 0.583
12.9949 0.604
13.0256 0.698
13.0563 0.552
13.0869 0.604
13.1176 0.583
13.1483 0.708
13.1790 0.635
13.2097 0.562
13.2403 0.573
13.2710 0.583
13.3017 0.719
13.3324 0.615
13.3630 0.667
13.3937 0.437
13.4244 0.510
13.4551 0.552
13.4858 0.625
13.5164 0.510
13.5471 0.552
13.5778 0.615
13.6085 0.448
13.6392 0.625
13.6698 0.490
13.7005 0.792
13.7312 0.615
13.7619 0.625
13.7926 0.490
13.8232 0.604
13.8539 0.490
13.8846 0.698
13.9153 0.625
13.9459 0.583
13.9766 0.719
14.0073 0.531
14.0380 0.469
14.0687 0.521
14.0993 0.573
14.1300 0.521
14.1607 0.542
14.1914 0.583
14.2221 0.604
14.2527 0.521
14.2834 0.667
14.3141 0.573
14.3448 0.708
14.3755 0.563
14.4061 0.583
14.4368 0.677
14.4675 0.802
14.4982 0.823
14.5288 1.260
14.5595 2.156
14.5902 3.636
14.6209 8.020
14.6516 9.312
14.6822 5.406
14.7129 1.896
14.7436 0.917
14.7743 0.854
14.8050 0.823
14.8356 0.615
14.8663 0.615
14.8970 0.542
14.9277 0.521
14.9584 0.573
14.9890 0.573
15.0197 0.500
15.0504 0.562
15.0811 0.479
15.1117 0.542
15.1424 0.635
15.1731 0.573
15.2038 0.625
15.2345 0.510
15.2651 0.490
15.2958 0.552
15.3265 0.521
15.3572 0.573
15.3879 0.437
15.4185 0.531
15.4492 0.521
15.4799 0.542
15.5106 0.385
15.5413 0.531
15.5719 0.552
15.6026 0.542
15.6333 0.490
15.6640 0.552
15.6946 0.406
15.7253 0.385
15.7560 0.583
15.7867 0.615
15.8174 0.469
15.8480 0.438
15.8787 0.594
15.9094 0.542
15.9401 0.562
15.9708 0.510
16.0014 0.458
16.0321 0.688
16.0628 0.615
16.0935 0.542
16.1242 0.469
16.1548 0.458
16.1855 0.479
16.2162 0.510
16.2469 0.510
16.2775 0.573
16.3082 0.479
16.3389 0.490
16.3696 0.521
16.4003 0.635
16.4309 0.521
16.4616 0.490
16.4923 0.469
16.5230 0.542
16.5537 0.552
16.5843 0.448
16.6150 0.406
16.6457 0.542
16.6764 0.521
16.7071 0.604
16.7377 0.521
16.7684 0.562
16.7991 0.656
16.8298 0.917
16.8604 1.427
16.8911 2.177
16.9218 2.958
16.9525 2.010
16.9832 1.312
17.0138 0.760
17.0445 0.729
17.0752 0.625
17.1059 0.521
17.1366 0.490
17.1672 0.396
17.1979 0.500
17.2286 0.396
17.2593 0.438
17.2900 0.427
17.3206 0.375
17.3513 0.542
17.3820 0.542
17.4127 0.458
17.4433 0.479
17.4740 0.458
17.5047 0.562
17.5354 0.583
17.5661 0.458
17.5967 0.521
17.6274 0.542
17.6581 0.490
17.6888 0.490
17.7195 0.490
17.7501 0.469
17.7808 0.552
17.8115 0.469
17.8422 0.490
17.8729 0.552
17.9035 0.365
17.9342 0.417
17.9649 0.344
17.9956 0.385
18.0262 0.552
18.0569 0.594
18.0876 0.375
18.1183 0.500
18.1490 0.521
18.1796 0.448
18.2103 0.406
18.2410 0.312
18.2717 0.510
18.3024 0.448
18.3330 0.365
18.3637 0.479
18.3944 0.542
18.4251 0.344
18.4558 0.583
18.4864 0.365
18.5171 0.438
18.5478 0.479
18.5785 0.427
18.6091 0.365
18.6398 0.406
18.6705 0.385
18.7012 0.510
18.7319 0.479
18.7625 0.594
18.7932 0.365
18.8239 0.313
18.8546 0.385
18.8853 0.562
18.9159 0.365
18.9466 0.552
18.9773 0.437
19.0080 0.635
19.0387 0.375
19.0693 0.479
19.1000 0.417
19.1307 0.437
19.1614 0.562
19.1920 0.479
19.2227 0.417
19.2534 0.458
19.2841 0.458
19.3148 0.479
19.3454 0.323
19.3761 0.417
19.4068 0.510
19.4375 0.437
19.4682 0.490
19.4988 0.406
19.5295 0.385
19.5602 0.479
19.5909 0.615
19.6216 0.458
19.6522 0.469
19.6829 0.437
19.7136 0.563
19.7443 0.458
19.7749 0.417
19.8056 0.552
19.8363 0.333
19.8670 0.542
19.8977 0.365
19.9283 0.521
19.9590 0.323
19.9897 0.500
20.0204 0.406
20.0511 0.469
20.0817 0.500
20.1124 0.479
20.1431 0.458
20.1738 0.437
20.2045 0.531
20.2351 0.417
20.2658 0.542
20.2965 0.500
20.3272 0.448
20.3578 0.458
20.3885 0.531
20.4192 0.448
20.4499 0.417
20.4806 0.594
20.5112 0.437
20.5419 0.427
20.5726 0.490
20.6033 0.490
20.6340 0.500
20.6646 0.385
20.6953 0.521
20.7260 0.521
20.7567 0.375
20.7874 0.625
20.8180 0.448
20.8487 0.479
20.8794 0.417
20.9101 0.396
20.9407 0.469
20.9714 0.510
21.0021 0.594
21.0328 0.437
21.0635 0.448
21.0941 0.437
21.1248 0.469
21.1555 0.542
21.1862 0.521
21.2169 0.406
21.2475 0.531
21.2782 0.448
21.3089 0.344
21.3396 0.542
21.3703 0.406
21.4009 0.500
21.4316 0.542
21.4623 0.344
21.4930 0.313
21.5236 0.573
21.5543 0.594
21.5850 0.646
21.6157 0.719
21.6464 0.781
21.6770 0.552
21.7077 0.531
21.7384 0.552
21.7691 0.594
21.7998 0.479
21.8304 0.615
21.8611 0.542
21.8918 0.583
21.9225 0.573
21.9532 0.552
21.9838 0.469
22.0145 0.542
22.0452 0.542
22.0759 0.500
22.1065 0.635
22.1372 0.646
22.1679 0.583
22.1986 0.479
22.2293 0.521
22.2599 0.458
22.2906 0.469
22.3213 0.521
22.3520 0.573
22.3827 0.656
22.4133 0.521
22.4440 0.531
22.4747 0.635
22.5054 0.500
22.5361 0.667
22.5667 0.667
22.5974 0.719
22.6281 0.688
22.6588 0.552
22.6894 0.656
22.7201 0.510
22.7508 0.677
22.7815 0.667
22.8122 0.625
22.8428 0.625
22.8735 0.667
22.9042 0.635
22.9349 0.750
22.9656 0.688
22.9962 0.687
23.0269 0.802
23.0576 0.667
23.0883 0.865
23.1190 0.917
23.1496 1.062
23.1803 0.865
23.2110 0.719
23.2417 0.896
23.2723 1.104
23.3030 1.156
23.3337 1.052
23.3644 1.146
23.3951 1.135
23.4257 1.198
23.4564 1.042
23.4871 1.240
23.5178 1.354
23.5485 1.271
23.5791 1.364
23.6098 1.458
23.6405 1.813
23.6712 2.000
23.7019 2.281
23.7325 3.073
23.7632 3.708
23.7939 5.114
23.8246 7.448
23.8552 11.730
23.8859 24.082
23.9166 49.382
23.9473 102.513
23.9780 182.276
24.0086 201.152
24.0393 151.640
24.0700 106.784
24.1007 51.777
24.1314 23.842
24.1620 12.886
24.1927 7.771
24.2234 5.802
24.2541 4.031
24.2848 3.156
24.3154 2.448
24.3461 2.594
24.3768 2.010
24.4075 1.844
24.4381 1.614
24.4688 1.458
24.4995 1.344
24.5302 1.135
24.5609 1.385
24.5915 1.146
24.6222 1.323
24.6529 1.385
24.6836 1.219
24.7143 1.240
24.7449 1.167
24.7756 0.906
24.8063 1.104
24.8370 1.062
24.8677 0.990
24.8983 0.833
24.9290 0.833
24.9597 0.896
24.9904 0.812
25.0210 0.948
25.0517 0.927
25.0824 0.958
25.1131 0.906
25.1438 0.615
25.1744 0.885
25.2051 0.812
25.2358 0.875
25.2665 1.042
25.2972 0.719
25.3278 0.760
25.3585 0.625
25.3892 0.656
25.4199 0.656
25.4506 0.604
25.4812 0.594
25.5119 0.698
25.5426 0.562
25.5733 0.646
25.6039 0.615
25.6346 0.490
25.6653 0.542
25.6960 0.635
25.7267 0.562
25.7573 0.708
25.7880 0.646
25.8187 0.604
25.8494 0.500
25.8801 0.531
25.9107 0.552
25.9414 0.500
25.9721 0.594
26.0028 0.521
26.0335 0.583
26.0641 0.604
26.0948 0.479
26.1255 0.594
26.1562 0.510
26.1868 0.479
26.2175 0.604
26.2482 0.479
26.2789 0.479
26.3096 0.385
26.3402 0.417
26.3709 0.594
26.4016 0.552
26.4323 0.458
26.4630 0.510
26.4936 0.448
26.5243 0.427
26.5550 0.573
26.5857 0.583
26.6164 0.437
26.6470 0.615
26.6777 0.406
26.7084 0.604
26.7391 0.490
26.7697 0.427
26.8004 0.490
26.8311 0.396
26.8618 0.458
26.8925 0.292
26.9231 0.531
26.9538 0.552
26.9845 0.448
27.0152 0.490
27.0459 0.427
27.0765 0.521
27.1072 0.500
27.1379 0.521
27.1686 0.365
27.1993 0.521
27.2299 0.604
27.2606 0.437
27.2913 0.500
27.3220 0.490
27.3526 0.385
27.3833 0.510
27.4140 0.521
27.4447 0.677
27.4754 0.500
27.5060 0.448
27.5367 0.604
27.5674 0.615
27.5981 0.563
27.6288 0.542
27.6594 0.656
27.6901 0.490
27.7208 0.375
27.7515 0.479
27.7822 0.667
27.8128 0.604
27.8435 0.469
27.8742 0.448
27.9049 0.490
27.9355 0.500
27.9662 0.583
27.9969 0.594
28.0276 0.458
28.0583 0.562
28.0889 0.563
28.1196 0.667
28.1503 1.083
28.1810 1.187
28.2117 1.187
28.2423 1.385
28.2730 1.125
28.3037 0.990
28.3344 0.635
28.3651 0.667
28.3957 0.708
28.4264 0.594
28.4571 0.583
28.4878 0.687
28.5184 0.552
28.5491 0.583
28.5798 0.615
28.6105 0.708
28.6412 0.479
28.6718 0.573
28.7025 0.677
28.7332 0.823
28.7639 0.594
28.7946 0.719
28.8252 0.604
28.8559 0.615
28.8866 0.781
28.9173 0.812
28.9480 0.490
28.9786 0.781
29.0093 0.781
29.0400 0.677
29.0707 0.844
29.1013 0.823
29.1320 0.875
29.1627 0.823
29.1934 0.969
29.2241 1.156
29.2547 1.437
29.2854 1.406
29.3161 2.385
29.3468 3.438
29.3775 5.761
29.4081 9.916
29.4388 20.561
29.4695 42.580
29.5002 53.606
29.5309 41.710
29.5615 35.435
29.5922 23.384
29.6229 11.155
29.6536 5.511
29.6842 3.365
29.7149 2.469
29.7456 1.552
29.7763 1.406
29.8070 1.135
29.8376 1.125
29.8683 0.958
29.8990 0.792
29.9297 0.771
29.9604 0.729
29.9910 0.792
30.0217 0.781
30.0524 0.875
30.0831 0.813
30.1138 0.750
30.1444 0.656
30.1751 0.750
30.2058 0.760
30.2365 0.667
30.2671 0.677
30.2978 0.667
30.3285 0.583
30.3592 0.583
30.3899 0.781
30.4205 0.667
30.4512 0.573
30.4819 0.583
30.5126 0.562
30.5433 0.750
30.5739 0.635
30.6046 0.542
30.6353 0.583
30.6660 0.583
30.6967 0.615
30.7273 0.688
30.7580 0.813
30.7887 0.708
30.8194 0.729
30.8500 0.687
30.8807 0.583
30.9114 0.656
30.9421 0.708
30.9728 0.531
31.0034 0.562
31.0341 0.583
31.0648 0.656
31.0955 0.646
31.1262 0.583
31.1568 0.427
31.1875 0.521
31.2182 0.510
31.2489 0.490
31.2796 0.625
31.3102 0.573
31.3409 0.625
31.3716 0.437
31.4023 0.604
31.4329 0.552
31.4636 0.469
31.4943 0.583
31.5250 0.594
31.5557 0.635
31.5863 0.458
31.6170 0.417
31.6477 0.510
31.6784 0.542
31.7091 0.469
31.7397 0.542
31.7704 0.667
31.8011 0.354
31.8318 0.500
31.8625 0.583
31.8931 0.490
31.9238 0.510
31.9545 0.521
31.9852 0.667
32.0158 0.552
32.0465 0.333
32.0772 0.510
32.1079 0.510
32.1386 0.448
32.1692 0.479
32.1999 0.594
32.2306 0.552
32.2613 0.677
32.2920 0.594
32.3226 0.500
32.3533 0.542
32.3840 0.615
32.4147 0.646
32.4454 0.594
32.4760 0.573
32.5067 0.552
32.5374 0.469
32.5681 0.510
32.5987 0.615
32.6294 0.604
32.6601 0.656
32.6908 0.646
32.7215 0.594
32.7521 0.510
32.7828 0.552
32.8135 0.708
32.8442 0.708
32.8749 0.625
32.9055 0.573
32.9362 0.594
32.9669 0.656
32.9976 0.615
33.0283 0.677
33.0589 0.604
33.0896 0.760
33.1203 0.667
33.1510 0.604
33.1816 0.781
33.2123 0.781
33.2430 0.750
33.2737 0.594
33.3044 0.750
33.3350 0.792
33.3657 0.677
33.3964 0.646
33.4271 0.823
33.4578 0.854
33.4884 0.885
33.5191 0.729
33.5498 0.969
33.5805 0.990
33.6112 0.906
33.6418 1.021
33.6725 0.906
33.7032 1.062
33.7339 1.000
33.7645 1.365
33.7952 1.208
33.8259 1.479
33.8566 1.958
33.8873 1.917
33.9179 2.458
33.9486 2.906
33.9793 4.146
34.0100 5.177
34.0407 8.510
34.0713 13.499
34.1020 24.498
34.1327 46.845
34.1634 75.408
34.1941 81.775
34.2247 62.797
34.2554 56.871
34.2861 44.616
34.3168 24.480
34.3474 14.250
34.3781 7.947
34.4088 5.604
34.4395 3.927
34.4702 3.042
34.5008 2.552
34.5315 2.167
34.5622 1.479
34.5929 1.479
34.6236 1.437
34.6542 1.177
34.6849 1.115
34.7156 1.052
34.7463 0.948
34.7770 1.031
34.8076 1.031
34.8383 1.073
34.8690 0.906
34.8997 0.875
34.9303 1.062
34.9610 0.906
34.9917 0.771
35.0224 0.688
35.0531 0.854
35.0837 0.865
35.1144 0.594
35.1451 0.698
35.1758 0.760
35.2065 0.813
35.2371 0.760
35.2678 0.677
35.2985 0.646
35.3292 0.635
35.3599 0.688
35.3905 0.698
35.4212 0.698
35.4519 0.719
35.4826 0.677
35.5132 0.677
35.5439 0.604
35.5746 0.604
35.6053 0.667
35.6360 0.615
35.6666 0.521
35.6973 0.833
35.7280 0.688
35.7587 0.573
35.7894 0.802
35.8200 0.635
35.8507 0.542
35.8814 0.542
35.9121 0.563
35.9428 0.771
35.9734 0.708
36.0041 0.521
36.0348 0.625
36.0655 0.583
36.0961 0.531
36.1268 0.594
36.1575 0.625
36.1882 0.573
36.2189 0.479
36.2495 0.490
36.2802 0.479
36.3109 0.469
36.3416 0.490
36.3723 0.552
36.4029 0.458
36.4336 0.417
36.4643 0.448
36.4950 0.542
36.5257 0.573
36.5563 0.385
36.5870 0.510
36.6177 0.438
36.6484 0.500
36.6790 0.677
36.7097 0.552
36.7404 0.406
36.7711 0.563
36.8018 0.479
36.8324 0.583
36.8631 0.510
36.8938 0.437
36.9245 0.427
36.9552 0.531
36.9858 0.521
37.0165 0.406
37.0472 0.437
37.0779 0.552
37.1086 0.594
37.1392 0.365
37.1699 0.427
37.2006 0.479
37.2313 0.396
37.2619 0.479
37.2926 0.500
37.3233 0.479
37.3540 0.500
37.3847 0.552
37.4153 0.417
37.4460 0.552
37.4767 0.458
37.5074 0.510
37.5381 0.531
37.5687 0.490
37.5994 0.396
37.6301 0.458
37.6608 0.521
37.6915 0.375
37.7221 0.573
37.7528 0.417
37.7835 0.500
37.8142 0.490
37.8448 0.469
37.8755 0.490
37.9062 0.563
37.9369 0.500
37.9676 0.729
37.9982 0.437
38.0289 0.469
38.0596 0.635
38.0903 0.437
38.1210 0.708
38.1516 0.490
38.1823 0.521
38.2130 0.667
38.2437 0.552
38.2744 0.615
38.3050 0.844
38.3357 1.083
38.3664 1.250
38.3971 1.146
38.4277 1.021
38.4584 0.750
38.4891 0.771
38.5198 0.698
38.5505 0.438
38.5811 0.604
38.6118 0.604
38.6425 0.458
38.6732 0.552
38.7039 0.510
38.7345 0.406
38.7652 0.438
38.7959 0.448
38.8266 0.396
38.8573 0.500
38.8879 0.469
38.9186 0.583
38.9493 0.427
38.9800 0.375
39.0106 0.562
39.0413 0.469
39.0720 0.448
39.1027 0.500
39.1334 0.406
39.1640 0.521
39.1947 0.500
39.2254 0.500
39.2561 0.635
39.2868 0.594
39.3174 0.510
39.3481 0.552
39.3788 0.458
39.4095 0.521
39.4402 0.437
39.4708 0.469
39.5015 0.448
39.5322 0.427
39.5629 0.531
39.5935 0.500
39.6242 0.510
39.6549 0.375
39.6856 0.448
39.7163 0.521
39.7469 0.469
39.7776 0.469
39.8083 0.500
39.8390 0.448
39.8697 0.573
39.9003 0.510
39.9310 0.406
39.9617 0.635
39.9924 0.438
40.0231 0.458
40.0537 0.510
40.0844 0.687
40.1151 0.500
40.1458 0.448
40.1764 0.417
40.2071 0.490
40.2378 0.604
40.2685 0.479
40.2992 0.562
40.3298 0.563
40.3605 0.563
40.3912 0.542
40.4219 0.573
40.4526 0.469
40.4832 0.594
40.5139 0.458
40.5446 0.698
40.5753 0.573
40.6060 0.542
40.6366 0.625
40.6673 0.500
40.6980 0.719
40.7287 0.594
40.7593 0.552
40.7900 0.448
40.8207 0.500
40.8514 0.594
40.8821 0.594
40.9127 0.573
40.9434 0.521
40.9741 0.594
41.0048 0.656
41.0355 0.615
41.0661 0.563
41.0968 0.740
41.1275 0.615
41.1582 0.583
41.1889 0.594
41.2195 0.646
41.2502 0.719
41.2809 0.583
41.3116 0.656
41.3422 0.625
41.3729 0.604
41.4036 0.823
41.4343 0.698
41.4650 0.573
41.4956 0.812
41.5263 0.875
41.5570 0.885
41.5877 0.781
41.6184 0.781
41.6490 0.885
41.6797 1.010
41.7104 0.927
41.7411 1.083
41.7718 0.979
41.8024 1.198
41.8331 1.448
41.8638 1.354
41.8945 1.854
41.9251 2.448
41.9558 3.042
41.9865 4.000
42.0172 5.552
42.0479 8.135
42.0785 11.905
42.1092 20.167
42.1399 32.428
42.1706 50.189
42.2013 59.058
42.2319 43.111
42.2626 34.862
42.2933 35.261
42.3240 28.105
42.3547 16.790
42.3853 9.614
42.4160 6.489
42.4467 4.604
42.4774 3.458
42.5080 2.573
42.5387 2.531
42.5694 1.844
42.6001 1.396
42.6308 1.489
42.6614 1.135
42.6921 1.271
42.7228 1.062
42.7535 1.125
42.7842 0.958
42.8148 1.031
42.8455 0.979
42.8762 0.854
42.9069 0.646
42.9376 0.844
42.9682 0.719
42.9989 0.688
43.0296 0.813
43.0603 0.656
43.0909 0.656
43.1216 0.719
43.1523 0.615
43.1830 0.698
43.2137 0.521
43.2443 0.781
43.2750 0.687
43.3057 0.583
43.3364 0.635
43.3671 0.729
43.3977 0.531
43.4284 0.583
43.4591 0.510
43.4898 0.604
43.5205 0.594
43.5511 0.688
43.5818 0.698
43.6125 0.656
43.6432 0.646
43.6738 0.656
43.7045 0.677
43.7352 0.552
43.7659 0.604
43.7966 0.646
43.8272 0.656
43.8579 0.562
43.8886 0.771
43.9193 0.698
43.9500 0.469
43.9806 0.719
44.0113 0.812
44.0420 0.625
44.0727 0.656
44.1034 0.677
44.1340 0.594
44.1647 0.667
44.1954 0.646
44.2261 0.573
44.2567 0.510
44.2874 0.594
44.3181 0.615
44.3488 0.562
44.3795 0.562
44.4101 0.531
44.4408 0.521
44.4715 0.635
44.5022 0.573
44.5329 0.521
44.5635 0.521
44.5942 0.573
44.6249 0.625
44.6556 0.667
44.6863 0.792
44.7169 0.687
44.7476 0.750
44.7783 0.865
44.8090 1.083
44.8396 1.344
44.8703 1.573
44.9010 1.448
44.9317 1.125
44.9624 1.208
44.9930 1.250
45.0237 0.979
45.0544 0.885
45.0851 0.698
45.1158 0.719
45.1464 0.677
45.1771 0.469
45.2078 0.562
45.2385 0.604
45.2692 0.365
45.2998 0.490
45.3305 0.583
45.3612 0.406
45.3919 0.469
45.4225 0.469
45.4532 0.469
45.4839 0.542
45.5146 0.438
45.5453 0.521
45.5759 0.531
45.6066 0.417
45.6373 0.448
45.6680 0.531
45.6987 0.427
45.7293 0.563
45.7600 0.552
45.7907 0.427
45.8214 0.531
45.8521 0.427
45.8827 0.531
45.9134 0.417
45.9441 0.604
45.9748 0.531
46.0054 0.500
46.0361 0.521
46.0668 0.500
46.0975 0.417
46.1282 0.448
46.1588 0.365
46.1895 0.448
46.2202 0.500
46.2509 0.417
46.2816 0.698
46.3122 0.583
46.3429 0.479
46.3736 0.552
46.4043 0.427
46.4350 0.500
46.4656 0.427
46.4963 0.583
46.5270 0.531
46.5577 0.594
46.5883 0.500
46.6190 0.635
46.6497 0.542
46.6804 0.542
46.7111 0.615
46.7417 0.427
46.7724 0.552
46.8031 0.490
46.8338 0.521
46.8645 0.448
46.8951 0.469
46.9258 0.479
46.9565 0.552
46.9872 0.500
47.0179 0.510
47.0485 0.500
47.0792 0.688
47.1099 0.427
47.1406 0.542
47.1712 0.500
47.2019 0.417
47.2326 0.531
47.2633 0.542
47.2940 0.563
47.3246 0.500
47.3553 0.521
47.3860 0.490
47.4167 0.594
47.4474 0.552
47.4780 0.656
47.5087 0.552
47.5394 0.635
47.5701 0.656
47.6008 0.594
47.6314 0.594
47.6621 0.552
47.6928 0.385
47.7235 0.667
47.7541 0.615
47.7848 0.583
47.8155 0.521
47.8462 0.583
47.8769 0.625
47.9075 0.708
47.9382 0.542
47.9689 0.573
47.9996 0.521
48.0303 0.531
48.0609 0.615
48.0916 0.667
48.1223 0.740
48.1530 0.729
48.1837 0.573
48.2143 0.667
48.2450 0.802
48.2757 0.667
48.3064 0.781
48.3370 0.656
48.3677 0.781
48.3984 0.667
48.4291 0.687
48.4598 0.792
48.4904 0.771
48.5211 0.750
48.5518 0.896
48.5825 1.000
48.6132 0.937
48.6438 1.052
48.6745 1.052
48.7052 1.344
48.7359 1.208
48.7666 1.250
48.7972 1.635
48.8279 2.156
48.8586 2.729
48.8893 3.521
48.9199 4.104
48.9506 6.093
48.9813 8.843
49.0120 13.655
49.0427 20.209
49.0733 28.386
49.1040 34.143
49.1347 29.331
49.1654 25.425
49.1961 23.154
49.2267 22.334
49.2574 18.126
49.2881 12.865
49.3188 7.979
49.3495 6.218
49.3801 4.010
49.4108 3.375
49.4415 2.438
49.4722 2.031
49.5028 1.823
49.5335 1.385
49.5642 1.292
49.5949 1.188
49.6256 0.927
49.6562 1.021
49.6869 0.781
49.7176 0.979
49.7483 0.927
49.7790 1.000
49.8096 0.938
49.8403 0.823
49.8710 0.812
49.9017 0.823
49.9324 0.760
49.9630 0.677
49.9937 0.698
50.0244 0.740
50.0551 0.615
50.0857 0.677
50.1164 0.688
50.1471 0.625
50.1778 0.698
50.2085 0.677
50.2391 0.635
50.2698 0.615
50.3005 0.563
50.3312 0.594
50.3619 0.594
50.3925 0.479
50.4232 0.583
50.4539 0.479
50.4846 0.625
50.5153 0.615
50.5459 0.542
50.5766 0.521
50.6073 0.542
50.6380 0.646
50.6686 0.563
50.6993 0.625
50.7300 0.490
50.7607 0.583
50.7914 0.500
50.8220 0.625
50.8527 0.625
50.8834 0.542
50.9141 0.542
50.9448 0.646
50.9754 0.448
51.0061 0.469
51.0368 0.531
51.0675 0.646
51.0982 0.531
51.1288 0.552
51.1595 0.521
51.1902 0.510
51.2209 0.552
51.2515 0.510
51.2822 0.583
51.3129 0.656
51.3436 0.573
51.3743 0.677
51.4049 0.677
51.4356 0.875
51.4663 1.042
51.4970 1.135
51.5277 1.312
51.5583 1.063
51.5890 0.979
51.6197 0.802
51.6504 0.750
51.6811 0.646
51.7117 0.844
51.7424 0.563
51.7731 0.688
51.8038 0.698
51.8344 0.562
51.8651 0.469
51.8958 0.542
51.9265 0.427
51.9572 0.594
51.9878 0.510
52.0185 0.531
52.0492 0.583
52.0799 0.396
52.1106 0.469
52.1412 0.573
52.1719 0.615
52.2026 0.552
52.2333 0.552
52.2640 0.552
52.2946 0.792
52.3253 0.740
52.3560 0.771
52.3867 0.562
52.4173 0.542
52.4480 0.583
52.4787 0.583
52.5094 0.573
52.5401 0.562
52.5707 0.396
52.6014 0.385
52.6321 0.427
52.6628 0.396
52.6935 0.562
52.7241 0.469
52.7548 0.479
52.7855 0.448
52.8162 0.406
52.8469 0.573
52.8775 0.385
52.9082 0.406
52.9389 0.510
52.9696 0.406
53.0002 0.594
53.0309 0.562
53.0616 0.521
53.0923 0.531
53.1230 0.479
53.1536 0.583
53.1843 0.469
53.2150 0.531
53.2457 0.417
53.2764 0.479
53.3070 0.531
53.3377 0.500
53.3684 0.573
53.3991 0.583
53.4298 0.500
53.4604 0.594
53.4911 0.604
53.5218 0.438
53.5525 0.583
53.5831 0.562
53.6138 0.573
53.6445 0.500
53.6752 0.500
53.7059 0.521
53.7365 0.479
53.7672 0.531
53.7979 0.469
53.8286 0.490
53.8593 0.448
53.8899 0.427
53.9206 0.448
53.9513 0.583
53.9820 0.500
54.0127 0.542
54.0433 0.583
54.0740 0.531
54.1047 0.365
54.1354 0.510
54.1660 0.479
54.1967 0.438
54.2274 0.438
54.2581 0.438
54.2888 0.594
54.3194 0.531
54.3501 0.677
54.3808 0.667
54.4115 0.583
54.4422 0.552
54.4728 0.479
54.5035 0.552
54.5342 0.573
54.5649 0.563
54.5956 0.573
54.6262 0.563
54.6569 0.510
54.6876 0.656
54.7183 0.625
54.7489 0.625
54.7796 0.760
54.8103 0.615
54.8410 0.635
54.8717 0.771
54.9023 0.729
54.9330 0.875
54.9637 0.823
54.9944 1.114
55.0251 1.177
55.0557 1.260
55.0864 1.490
55.1171 1.740
55.1478 2.239
55.1785 2.573
55.2091 3.916
55.2398 5.052
55.2705 6.927
55.3012 9.927
55.3318 13.355
55.3625 15.218
55.3932 13.551
55.4239 10.405
55.4546 9.636
55.4852 10.073
55.5159 9.374
55.5466 7.489
55.5773 5.291
55.6080 4.042
55.6386 2.844
55.6693 1.969
55.7000 1.677
55.7307 1.604
55.7614 1.042
55.7920 1.073
55.8227 0.979
55.8534 0.896
55.8841 0.656
55.9147 0.875
55.9454 0.708
55.9761 0.750
56.0068 0.781
56.0375 0.729
56.0681 0.583
56.0988 0.354
56.1295 0.750
56.1602 0.594
56.1909 0.573
56.2215 0.594
56.2522 0.552
56.2829 0.479
56.3136 0.583
56.3443 0.583
56.3749 0.583
56.4056 0.562
56.4363 0.510
56.4670 0.510
56.4976 0.542
56.5283 0.417
56.5590 0.500
56.5897 0.531
56.6204 0.667
56.6510 0.552
56.6817 0.510
56.7124 0.625
56.7431 0.438
56.7738 0.562
56.8044 0.531
56.8351 0.625
56.8658 0.438
56.8965 0.406
56.9272 0.437
56.9578 0.562
56.9885 0.521
57.0192 0.531
57.0499 0.563
57.0805 0.479
57.1112 0.531
57.1419 0.604
57.1726 0.531
57.2033 0.667
57.2339 0.500
57.2646 0.708
57.2953 0.531
57.3260 0.479
57.3567 0.417
57.3873 0.510
57.4180 0.479
57.4487 0.542
57.4794 0.510
57.5101 0.521
57.5407 0.635
57.5714 0.531
57.6021 0.552
57.6328 0.354
57.6634 0.531
57.6941 0.510
57.7248 0.521
57.7555 0.510
57.7862 0.656
57.8168 0.385
57.8475 0.604
57.8782 0.646
57.9089 0.646
57.9396 0.604
57.9702 0.667
58.0009 0.594
58.0316 0.677
58.0623 0.792
58.0930 0.875
58.1236 1.031
58.1543 1.135
58.1850 1.656
58.2157 1.833
58.2463 2.271
58.2770 3.291
58.3077 3.604
58.3384 3.406
58.3691 3.052
58.3997 2.541
58.4304 2.760
58.4611 2.448
58.4918 2.146
58.5225 2.010
58.5531 1.479
58.5838 1.198
58.6145 0.917
58.6452 0.958
58.6759 0.708
58.7065 0.677
58.7372 0.615
58.7679 0.667
58.7986 0.479
58.8292 0.604
58.8599 0.510
58.8906 0.646
58.9213 0.354
58.9520 0.542
58.9826 0.562
59.0133 0.563
59.0440 0.458
59.0747 0.469
59.1054 0.417
59.1360 0.562
59.1667 0.396
59.1974 0.521
59.2281 0.615
59.2588 0.635
59.2894 0.490
59.3201 0.500
59.3508 0.458
59.3815 0.521
59.4121 0.458
59.4428 0.437
59.4735 0.406
59.5042 0.427
59.5349 0.708
59.5655 0.635
59.5962 0.500
59.6269 0.427
59.6576 0.437
59.6883 0.469
59.7189 0.510
59.7496 0.490
59.7803 0.479
59.8110 0.552
59.8417 0.427
59.8723 0.542
59.9030 0.500
59.9337 0.427
59.9644 0.479
59.9950 0.542
60.0257 0.375
60.0564 0.552
60.0871 0.458
60.1178 0.635
60.1484 0.500
60.1791 0.573
60.2098 0.531
60.2405 0.521
60.2712 0.615
60.3018 0.448
60.3325 0.656
60.3632 0.500
60.3939 0.490
60.4246 0.646
60.4552 0.552
60.4859 0.521
60.5166 0.490
60.5473 0.552
60.5779 0.573
60.6086 0.563
60.6393 0.573
60.6700 0.667
60.7007 0.687
60.7313 0.760
60.7620 0.625
60.7927 0.792
60.8234 0.948
60.8541 1.052
60.8847 1.042
60.9154 1.344
60.9461 1.240
60.9768 1.927
61.0075 2.167
61.0381 3.104
61.0688 4.343
61.0995 5.875
61.1302 7.906
61.1608 10.438
61.1915 10.801
61.2222 9.041
61.2529 7.885
61.2836 6.552
61.3142 6.667
61.3449 6.531
61.3756 6.209
61.4063 4.677
61.4370 2.937
61.4676 2.364
61.4983 1.771
61.5290 1.573
61.5597 1.281
61.5904 1.000
61.6210 1.000
61.6517 0.698
61.6824 0.854
61.7131 0.927
61.7437 0.687
61.7744 0.646
61.8051 0.740
61.8358 0.687
61.8665 0.521
61.8971 0.448
61.9278 0.437
61.9585 0.562
61.9892 0.604
62.0199 0.542
62.0505 0.615
62.0812 0.510
62.1119 0.535
62.1426 0.435
62.1733 0.493
62.2039 0.575
62.2346 0.548
62.2653 0.632
62.2960 0.448
62.3266 0.555
62.3573 0.458
62.3880 0.487
62.4187 0.622
62.4494 0.499
62.4800 0.745
62.5107 0.511
62.5414 0.566
62.5721 0.536
62.6028 0.379
62.6334 0.601
62.6641 0.544
62.6948 0.616
62.7255 0.558
62.7562 0.498
62.7868 0.437
62.8175 0.637
62.8482 0.589
62.8789 0.527
62.9095 0.462
62.9402 0.542
62.9709 0.714
63.0016 0.589
63.0323 0.659
63.0629 0.529
63.0936 0.696
63.1243 0.610
63.1550 0.702
63.1857 0.680
63.2163 0.692
63.2470 0.704
63.2777 0.751
63.3084 0.818
63.3391 0.742
63.3697 0.664
63.4004 0.563
63.4311 0.479
63.4618 0.390
63.4924 0.577
63.5231 0.487
63.5538 0.477
63.5845 0.656
63.6152 0.649
63.6458 0.464
63.6765 0.475
63.7072 0.509
63.7379 0.639
63.7686 0.533
63.7992 0.373
63.8299 0.535
63.8606 0.549
63.8913 0.349
63.9220 0.441
63.9526 0.369
63.9833 0.467
64.0140 0.391
64.0447 0.496
64.0753 0.512
64.1060 0.397
64.1367 0.239
64.1674 0.496
64.1981 0.404
64.2287 0.495
64.2594 0.198
64.2901 0.289
64.3208 0.473
64.3515 0.135
64.3821 0.565
64.4128 0.099
64.4435 0.364
64.4742 0.438
64.5049 0.116
64.5355 0.246
64.5662 0.131
64.5969 0.070
64.6276 0.075
64.6582 0.163
64.6889 0.000
64.7196 0.098
64.7503 0.108
64.7810 0.000
64.8116 0.138
64.8423 0.000
64.8730 0.000
64.9037 0.000
64.9344 0.000
64.9650 0.000
64.9957 0.000
