'Id: "" Comment: "" Operator: "Lab Manager" Anode: "Cu" Scantype: "Coupled TwoTheta/Theta (VDO)" TimePerStep: "92.00058" 
6.0001 1.148
6.0308 1.336
6.0615 3.038
6.0921 2.051
6.1228 2.870
6.1535 2.859
6.1842 2.988
6.2149 2.530
6.2455 2.612
6.2762 2.790
6.3069 2.149
6.3376 2.377
6.3682 2.294
6.3989 1.962
6.4296 2.324
6.4603 1.866
6.4910 2.138
6.5216 1.662
6.5523 1.628
6.5830 1.498
6.6137 1.817
6.6444 1.915
6.6750 1.972
6.7057 1.918
6.7364 1.651
6.7671 2.080
6.7978 1.818
6.8284 1.907
6.8591 1.674
6.8898 1.893
6.9205 2.073
6.9511 2.008
6.9818 1.984
7.0125 1.867
7.0432 2.295
7.0739 1.860
7.1045 1.824
7.1352 2.168
7.1659 1.840
7.1966 1.871
7.2273 2.052
7.2579 2.060
7.2886 1.941
7.3193 1.985
7.3500 1.729
7.3807 1.745
7.4113 2.000
7.4420 2.000
7.4727 2.229
7.5034 1.700
7.5340 1.795
7.5647 1.930
7.5954 2.217
7.6261 1.750
7.6568 1.875
7.6874 1.856
7.7181 1.671
7.7488 1.782
7.7795 1.838
7.8102 1.804
7.8408 2.007
7.8715 2.147
7.9022 2.053
7.9329 1.993
7.9636 2.046
7.9942 1.856
8.0249 1.844
8.0556 1.845
8.0863 1.916
8.1169 1.930
8.1476 1.962
8.1783 1.684
8.2090 1.799
8.2397 1.856
8.2703 1.844
8.3010 1.888
8.3317 2.074
8.3624 1.902
8.3931 1.639
8.4237 1.994
8.4544 2.000
8.4851 1.614
8.5158 1.557
8.5465 1.946
8.5771 1.786
8.6078 1.586
8.6385 1.588
8.6692 1.783
8.6998 1.679
8.7305 1.628
8.7612 2.018
8.7919 1.575
8.8226 1.880
8.8532 1.864
8.8839 1.682
8.9146 2.073
8.9453 1.663
8.9760 1.680
9.0066 1.571
9.0373 1.655
9.0680 1.459
9.0987 1.451
9.1294 1.786
9.1600 1.537
9.1907 1.500
9.2214 1.578
9.2521 1.559
9.2827 1.733
9.3134 1.625
9.3441 1.475
9.3748 1.355
9.4055 1.562
9.4361 1.654
9.4668 1.302
9.4975 1.417
9.5282 1.385
9.5589 1.271
9.5895 1.406
9.6202 1.521
9.6509 1.146
9.6816 1.271
9.7123 1.114
9.7429 1.438
9.7736 1.229
9.8043 1.375
9.8350 1.448
9.8656 1.312
9.8963 1.396
9.9270 1.437
9.9577 1.229
9.9884 1.229
10.0190 1.375
10.0497 1.198
10.0804 1.458
10.1111 1.104
10.1418 1.344
10.1724 1.063
10.2031 1.281
10.2338 1.062
10.2645 1.198
10.2952 1.302
10.3258 1.240
10.3565 1.177
10.3872 1.229
10.4179 1.156
10.4485 1.062
10.4792 1.479
10.5099 1.417
10.5406 1.240
10.5713 1.187
10.6019 1.135
10.6326 1.344
10.6633 1.198
10.6940 1.313
10.7247 1.229
10.7553 1.260
10.7860 1.042
10.8167 1.292
10.8474 1.198
10.8781 1.073
10.9087 1.312
10.9394 1.239
10.9701 1.135
11.0008 1.104
11.0314 1.083
11.0621 1.344
11.0928 1.000
11.1235 1.125
11.1542 1.042
11.1848 1.010
11.2155 0.969
11.2462 1.156
11.2769 1.104
11.3076 1.177
11.3382 1.250
11.3689 1.146
11.3996 1.156
11.4303 0.948
11.4610 1.104
11.4916 0.906
11.5223 0.958
11.5530 1.010
11.5837 1.167
11.6143 1.250
11.6450 1.167
11.6757 0.958
11.7064 0.990
11.7371 1.125
11.7677 0.979
11.7984 1.125
11.8291 1.104
11.8598 1.083
11.8905 1.042
11.9211 1.188
11.9518 1.021
11.9825 0.969
12.0132 1.042
12.0439 0.896
12.0745 1.000
12.1052 1.094
12.1359 1.125
12.1666 0.865
12.1972 1.031
12.2279 0.948
12.2586 0.927
12.2893 1.010
12.3200 0.958
12.3506 0.750
12.3813 0.948
12.4120 1.125
12.4427 0.990
12.4734 0.844
12.5040 0.990
12.5347 1.083
12.5654 0.958
12.5961 0.979
12.6268 0.927
12.6574 0.865
12.6881 0.844
12.7188 0.875
12.7495 0.958
12.7801 0.979
12.8108 0.833
12.8415 0.927
12.8722 1.042
12.9029 0.844
12.9335 1.021
12.9642 0.885
12.9949 0.781
13.0256 0.594
13.0563 1.031
13.0869 0.875
13.1176 0.802
13.1483 0.990
13.1790 0.917
13.2097 0.958
13.2403 0.906
13.2710 0.927
13.3017 0.948
13.3324 0.969
13.3630 0.948
13.3937 0.583
13.4244 0.719
13.4551 0.906
13.4858 0.760
13.5164 0.823
13.5471 0.760
13.5778 0.823
13.6085 0.865
13.6392 1.031
13.6698 0.927
13.7005 0.729
13.7312 0.719
13.7619 0.833
13.7926 0.656
13.8232 0.875
13.8539 0.729
13.8846 0.844
13.9153 0.812
13.9459 0.948
13.9766 0.750
14.0073 0.875
14.0380 0.708
14.0687 0.823
14.0993 0.760
14.1300 0.917
14.1607 0.906
14.1914 0.802
14.2221 0.833
14.2527 0.875
14.2834 0.969
14.3141 1.198
14.3448 0.948
14.3755 1.042
14.4061 1.188
14.4368 1.469
14.4675 1.708
14.4982 3.135
14.5288 6.812
14.5595 13.813
14.5902 27.970
14.6209 28.060
14.6516 14.697
14.6822 4.406
14.7129 1.896
14.7436 1.219
14.7743 1.104
14.8050 1.042
14.8356 0.937
14.8663 0.802
14.8970 0.729
14.9277 0.698
14.9584 0.844
14.9890 0.719
15.0197 0.750
15.0504 0.771
15.0811 0.667
15.1117 0.729
15.1424 0.760
15.1731 0.719
15.2038 0.812
15.2345 0.760
15.2651 0.698
15.2958 0.792
15.3265 0.833
15.3572 0.812
15.3879 0.667
15.4185 0.687
15.4492 0.563
15.4799 0.740
15.5106 0.677
15.5413 0.479
15.5719 0.562
15.6026 0.750
15.6333 0.750
15.6640 0.802
15.6946 0.646
15.7253 0.708
15.7560 0.562
15.7867 0.729
15.8174 0.729
15.8480 0.677
15.8787 0.646
15.9094 0.500
15.9401 0.500
15.9708 0.687
16.0014 0.604
16.0321 0.479
16.0628 0.740
16.0935 0.604
16.1242 0.552
16.1548 0.688
16.1855 0.635
16.2162 0.521
16.2469 0.656
16.2775 0.604
16.3082 0.656
16.3389 0.604
16.3696 0.729
16.4003 0.687
16.4309 0.573
16.4616 0.729
16.4923 0.625
16.5230 0.563
16.5537 0.677
16.5843 0.583
16.6150 0.521
16.6457 0.604
16.6764 0.479
16.7071 0.677
16.7377 0.594
16.7684 0.615
16.7991 0.792
16.8298 1.260
16.8604 1.354
16.8911 1.427
16.9218 1.229
16.9525 0.687
16.9832 0.635
17.0138 0.625
17.0445 0.500
17.0752 0.406
17.1059 0.646
17.1366 0.490
17.1672 0.531
17.1979 0.708
17.2286 0.521
17.2593 0.594
17.2900 0.531
17.3206 0.562
17.3513 0.531
17.3820 0.552
17.4127 0.604
17.4433 0.594
17.4740 0.656
17.5047 0.667
17.5354 0.531
17.5661 0.490
17.5967 0.563
17.6274 0.563
17.6581 0.510
17.6888 0.615
17.7195 0.625
17.7501 0.615
17.7808 0.563
17.8115 0.552
17.8422 0.771
17.8729 0.615
17.9035 0.583
17.9342 0.542
17.9649 0.552
17.9956 0.583
18.0262 0.604
18.0569 0.573
18.0876 0.594
18.1183 0.719
18.1490 0.594
18.1796 0.479
18.2103 0.667
18.2410 0.604
18.2717 0.427
18.3024 0.563
18.3330 0.552
18.3637 0.552
18.3944 0.521
18.4251 0.552
18.4558 0.625
18.4864 0.552
18.5171 0.646
18.5478 0.708
18.5785 0.615
18.6091 0.635
18.6398 0.573
18.6705 0.510
18.7012 0.573
18.7319 0.417
18.7625 0.521
18.7932 0.615
18.8239 0.583
18.8546 0.458
18.8853 0.594
18.9159 0.521
18.9466 0.615
18.9773 0.531
19.0080 0.635
19.0387 0.542
19.0693 0.438
19.1000 0.646
19.1307 0.531
19.1614 0.562
19.1920 0.521
19.2227 0.635
19.2534 0.458
19.2841 0.406
19.3148 0.531
19.3454 0.625
19.3761 0.521
19.4068 0.396
19.4375 0.490
19.4682 0.406
19.4988 0.552
19.5295 0.458
19.5602 0.417
19.5909 0.594
19.6216 0.552
19.6522 0.594
19.6829 0.531
19.7136 0.552
19.7443 0.500
19.7749 0.438
19.8056 0.667
19.8363 0.531
19.8670 0.604
19.8977 0.688
19.9283 0.552
19.9590 0.615
19.9897 0.417
20.0204 0.531
20.0511 0.458
20.0817 0.573
20.1124 0.563
20.1431 0.469
20.1738 0.635
20.2045 0.458
20.2351 0.531
20.2658 0.500
20.2965 0.365
20.3272 0.656
20.3578 0.583
20.3885 0.604
20.4192 0.625
20.4499 0.563
20.4806 0.615
20.5112 0.604
20.5419 0.542
20.5726 0.469
20.6033 0.594
20.6340 0.500
20.6646 0.573
20.6953 0.469
20.7260 0.531
20.7567 0.562
20.7874 0.510
20.8180 0.615
20.8487 0.563
20.8794 0.469
20.9101 0.698
20.9407 0.531
20.9714 0.542
21.0021 0.573
21.0328 0.677
21.0635 0.500
21.0941 0.562
21.1248 0.635
21.1555 0.583
21.1862 0.510
21.2169 0.479
21.2475 0.656
21.2782 0.583
21.3089 0.677
21.3396 0.479
21.3703 0.563
21.4009 0.573
21.4316 0.583
21.4623 0.531
21.4930 0.583
21.5236 0.760
21.5543 0.771
21.5850 0.906
21.6157 0.875
21.6464 0.708
21.6770 0.688
21.7077 0.740
21.7384 0.687
21.7691 0.677
21.7998 0.521
21.8304 0.542
21.8611 0.677
21.8918 0.583
21.9225 0.458
21.9532 0.469
21.9838 0.646
22.0145 0.552
22.0452 0.667
22.0759 0.563
22.1065 0.510
22.1372 0.562
22.1679 0.542
22.1986 0.740
22.2293 0.583
22.2599 0.531
22.2906 0.656
22.3213 0.437
22.3520 0.656
22.3827 0.531
22.4133 0.563
22.4440 0.531
22.4747 0.771
22.5054 0.646
22.5361 0.625
22.5667 0.552
22.5974 0.563
22.6281 0.698
22.6588 0.719
22.6894 0.750
22.7201 0.646
22.7508 0.615
22.7815 0.552
22.8122 0.729
22.8428 0.667
22.8735 0.750
22.9042 0.906
22.9349 0.875
22.9656 1.052
22.9962 0.906
23.0269 0.771
23.0576 0.833
23.0883 0.844
23.1190 0.792
23.1496 0.802
23.1803 1.042
23.2110 1.010
23.2417 0.917
23.2723 0.990
23.3030 0.990
23.3337 1.146
23.3644 1.239
23.3951 1.198
23.4257 1.177
23.4564 1.229
23.4871 1.365
23.5178 1.583
23.5485 1.844
23.5791 2.239
23.6098 2.667
23.6405 2.719
23.6712 3.521
23.7019 4.645
23.7325 5.375
23.7632 6.697
23.7939 10.999
23.8246 19.094
23.8552 34.699
23.8859 71.672
23.9166 144.364
23.9473 195.464
23.9780 149.473
24.0086 114.535
24.0393 56.429
24.0700 24.436
24.1007 11.905
24.1314 7.937
24.1620 4.875
24.1927 3.667
24.2234 3.031
24.2541 2.823
24.2848 1.979
24.3154 1.958
24.3461 1.844
24.3768 1.781
24.4075 1.635
24.4381 1.375
24.4688 1.364
24.4995 1.187
24.5302 1.375
24.5609 1.313
24.5915 1.333
24.6222 1.250
24.6529 1.208
24.6836 1.302
24.7143 1.406
24.7449 0.979
24.7756 1.073
24.8063 1.135
24.8370 1.021
24.8677 1.021
24.8983 1.010
24.9290 0.740
24.9597 1.000
24.9904 1.052
25.0210 0.896
25.0517 0.948
25.0824 0.917
25.1131 0.740
25.1438 0.875
25.1744 0.677
25.2051 0.719
25.2358 0.854
25.2665 0.927
25.2972 0.719
25.3278 0.729
25.3585 0.812
25.3892 0.823
25.4199 0.781
25.4506 0.677
25.4812 0.708
25.5119 0.750
25.5426 0.625
25.5733 0.656
25.6039 0.635
25.6346 0.677
25.6653 0.677
25.6960 0.604
25.7267 0.823
25.7573 0.625
25.7880 0.594
25.8187 0.500
25.8494 0.646
25.8801 0.552
25.9107 0.729
25.9414 0.635
25.9721 0.563
26.0028 0.615
26.0335 0.573
26.0641 0.625
26.0948 0.667
26.1255 0.646
26.1562 0.521
26.1868 0.521
26.2175 0.562
26.2482 0.521
26.2789 0.635
26.3096 0.510
26.3402 0.521
26.3709 0.583
26.4016 0.604
26.4323 0.594
26.4630 0.552
26.4936 0.719
26.5243 0.677
26.5550 0.698
26.5857 0.687
26.6164 0.802
26.6470 0.521
26.6777 0.563
26.7084 0.562
26.7391 0.604
26.7697 0.573
26.8004 0.656
26.8311 0.594
26.8618 0.438
26.8925 0.594
26.9231 0.573
26.9538 0.604
26.9845 0.604
27.0152 0.490
27.0459 0.625
27.0765 0.625
27.1072 0.625
27.1379 0.490
27.1686 0.573
27.1993 0.656
27.2299 0.615
27.2606 0.719
27.2913 0.646
27.3220 0.615
27.3526 0.625
27.3833 0.479
27.4140 0.646
27.4447 0.562
27.4754 0.521
27.5060 0.646
27.5367 0.771
27.5674 0.688
27.5981 0.594
27.6288 0.729
27.6594 0.625
27.6901 0.708
27.7208 0.677
27.7515 0.646
27.7822 0.562
27.8128 0.771
27.8435 0.719
27.8742 0.792
27.9049 0.729
27.9355 0.990
27.9662 0.906
27.9969 0.969
28.0276 1.094
28.0583 1.625
28.0889 2.792
28.1196 4.396
28.1503 6.072
28.1810 5.218
28.2117 4.500
28.2423 3.052
28.2730 1.719
28.3037 1.313
28.3344 0.917
28.3651 0.792
28.3957 0.969
28.4264 0.917
28.4571 0.740
28.4878 0.812
28.5184 0.823
28.5491 0.656
28.5798 0.896
28.6105 0.510
28.6412 0.917
28.6718 0.865
28.7025 0.823
28.7332 0.687
28.7639 0.625
28.7946 0.865
28.8252 0.625
28.8559 0.865
28.8866 0.906
28.9173 0.750
28.9480 0.771
28.9786 0.833
29.0093 0.969
29.0400 0.896
29.0707 1.187
29.1013 1.156
29.1320 1.302
29.1627 1.396
29.1934 2.083
29.2241 2.156
29.2547 2.656
29.2854 4.135
29.3161 6.136
29.3468 11.219
29.3775 23.115
29.4081 43.570
29.4388 66.484
29.4695 48.684
29.5002 39.355
29.5309 30.147
29.5615 12.489
29.5922 5.687
29.6229 3.698
29.6536 2.573
29.6842 2.115
29.7149 1.646
29.7456 1.375
29.7763 1.208
29.8070 0.969
29.8376 1.219
29.8683 0.792
29.8990 1.063
29.9297 0.885
29.9604 1.000
29.9910 0.958
30.0217 0.875
30.0524 0.813
30.0831 0.969
30.1138 0.854
30.1444 0.656
30.1751 0.823
30.2058 0.740
30.2365 0.948
30.2671 0.823
30.2978 0.844
30.3285 0.812
30.3592 0.969
30.3899 0.854
30.4205 0.708
30.4512 0.594
30.4819 0.750
30.5126 0.771
30.5433 0.906
30.5739 0.625
30.6046 0.740
30.6353 0.750
30.6660 0.990
30.6967 0.708
30.7273 1.063
30.7580 1.031
30.7887 0.813
30.8194 0.885
30.8500 0.969
30.8807 0.573
30.9114 0.792
30.9421 0.750
30.9728 0.604
31.0034 0.708
31.0341 0.792
31.0648 0.646
31.0955 0.583
31.1262 0.760
31.1568 0.604
31.1875 0.896
31.2182 0.656
31.2489 0.687
31.2796 0.583
31.3102 0.802
31.3409 0.677
31.3716 0.646
31.4023 0.573
31.4329 0.604
31.4636 0.729
31.4943 0.552
31.5250 0.469
31.5557 0.625
31.5863 0.667
31.6170 0.656
31.6477 0.865
31.6784 0.510
31.7091 0.635
31.7397 0.583
31.7704 0.583
31.8011 0.667
31.8318 0.771
31.8625 0.646
31.8931 0.708
31.9238 0.625
31.9545 0.823
31.9852 0.490
32.0158 0.760
32.0465 0.885
32.0772 0.667
32.1079 0.552
32.1386 0.656
32.1692 0.708
32.1999 0.771
32.2306 0.740
32.2613 0.635
32.2920 0.760
32.3226 0.760
32.3533 0.740
32.3840 0.698
32.4147 0.687
32.4454 0.521
32.4760 0.875
32.5067 0.708
32.5374 0.833
32.5681 0.802
32.5987 0.865
32.6294 0.740
32.6601 0.635
32.6908 0.646
32.7215 0.729
32.7521 0.740
32.7828 0.969
32.8135 0.802
32.8442 0.646
32.8749 0.698
32.9055 0.719
32.9362 0.833
32.9669 0.729
32.9976 0.760
33.0283 0.792
33.0589 0.750
33.0896 0.729
33.1203 0.927
33.1510 0.844
33.1816 0.802
33.2123 0.781
33.2430 0.854
33.2737 0.948
33.3044 0.969
33.3350 0.823
33.3657 0.948
33.3964 0.937
33.4271 1.146
33.4578 0.906
33.4884 0.958
33.5191 0.875
33.5498 0.906
33.5805 1.115
33.6112 1.167
33.6418 1.281
33.6725 1.187
33.7032 1.573
33.7339 1.708
33.7645 1.969
33.7952 2.365
33.8259 2.844
33.8566 3.166
33.8873 4.312
33.9179 5.302
33.9486 6.709
33.9793 9.667
34.0100 15.978
34.0407 29.852
34.0713 62.985
34.1020 93.441
34.1327 78.929
34.1634 64.971
34.1941 58.162
34.2247 39.737
34.2554 20.311
34.2861 10.594
34.3168 6.854
34.3474 4.156
34.3781 3.364
34.4088 2.437
34.4395 2.083
34.4702 1.906
34.5008 1.313
34.5315 1.521
34.5622 1.302
34.5929 1.146
34.6236 1.135
34.6542 1.354
34.6849 1.323
34.7156 1.052
34.7463 1.042
34.7770 1.052
34.8076 0.990
34.8383 0.823
34.8690 0.729
34.8997 1.146
34.9303 1.042
34.9610 0.896
34.9917 0.938
35.0224 0.990
35.0531 0.760
35.0837 0.792
35.1144 0.979
35.1451 0.927
35.1758 0.833
35.2065 0.813
35.2371 0.802
35.2678 0.875
35.2985 0.844
35.3292 0.854
35.3599 0.740
35.3905 0.750
35.4212 0.708
35.4519 0.635
35.4826 0.927
35.5132 0.719
35.5439 0.802
35.5746 0.719
35.6053 0.833
35.6360 0.760
35.6666 0.542
35.6973 0.604
35.7280 0.625
35.7587 0.740
35.7894 0.719
35.8200 0.729
35.8507 0.740
35.8814 0.750
35.9121 0.552
35.9428 0.708
35.9734 0.594
36.0041 0.646
36.0348 0.719
36.0655 0.583
36.0961 0.677
36.1268 0.635
36.1575 0.646
36.1882 0.542
36.2189 0.583
36.2495 0.531
36.2802 0.667
36.3109 0.719
36.3416 0.510
36.3723 0.667
36.4029 0.458
36.4336 0.708
36.4643 0.792
36.4950 0.646
36.5257 0.677
36.5563 0.625
36.5870 0.521
36.6177 0.573
36.6484 0.698
36.6790 0.615
36.7097 0.521
36.7404 0.552
36.7711 0.771
36.8018 0.573
36.8324 0.677
36.8631 0.552
36.8938 0.646
36.9245 0.500
36.9552 0.573
36.9858 0.552
37.0165 0.500
37.0472 0.479
37.0779 0.760
37.1086 0.750
37.1392 0.708
37.1699 0.594
37.2006 0.802
37.2313 1.250
37.2619 1.354
37.2926 1.437
37.3233 1.063
37.3540 1.271
37.3847 0.958
37.4153 0.792
37.4460 0.542
37.4767 0.646
37.5074 0.646
37.5381 0.656
37.5687 0.646
37.5994 0.583
37.6301 0.531
37.6608 0.635
37.6915 0.542
37.7221 0.542
37.7528 0.656
37.7835 0.500
37.8142 0.677
37.8448 0.583
37.8755 0.760
37.9062 0.604
37.9369 0.604
37.9676 0.615
37.9982 0.646
38.0289 0.594
38.0596 0.729
38.0903 0.656
38.1210 0.500
38.1516 0.615
38.1823 0.667
38.2130 0.698
38.2437 0.990
38.2744 0.865
38.3050 0.969
38.3357 0.802
38.3664 0.854
38.3971 0.771
38.4277 0.635
38.4584 0.698
38.4891 0.656
38.5198 0.604
38.5505 0.635
38.5811 0.563
38.6118 0.479
38.6425 0.687
38.6732 0.625
38.7039 0.719
38.7345 0.583
38.7652 0.729
38.7959 0.615
38.8266 0.552
38.8573 0.646
38.8879 0.625
38.9186 0.708
38.9493 0.635
38.9800 0.656
39.0106 0.667
39.0413 0.667
39.0720 0.510
39.1027 0.604
39.1334 0.479
39.1640 0.437
39.1947 0.542
39.2254 0.490
39.2561 0.833
39.2868 0.677
39.3174 0.688
39.3481 0.646
39.3788 0.698
39.4095 0.427
39.4402 0.510
39.4708 0.573
39.5015 0.552
39.5322 0.490
39.5629 0.625
39.5935 0.698
39.6242 0.583
39.6549 0.604
39.6856 0.656
39.7163 0.521
39.7469 0.562
39.7776 0.635
39.8083 0.594
39.8390 0.625
39.8697 0.552
39.9003 0.594
39.9310 0.594
39.9617 0.552
39.9924 0.708
40.0231 0.688
40.0537 0.656
40.0844 0.615
40.1151 0.562
40.1458 0.771
40.1764 0.583
40.2071 0.698
40.2378 0.615
40.2685 0.667
40.2992 0.698
40.3298 0.625
40.3605 0.573
40.3912 0.740
40.4219 0.771
40.4526 0.604
40.4832 0.667
40.5139 0.719
40.5446 0.771
40.5753 0.562
40.6060 0.844
40.6366 0.771
40.6673 0.781
40.6980 0.583
40.7287 0.729
40.7593 0.813
40.7900 0.604
40.8207 0.594
40.8514 0.698
40.8821 0.740
40.9127 0.771
40.9434 0.771
40.9741 0.750
41.0048 0.677
41.0355 0.719
41.0661 0.771
41.0968 0.677
41.1275 0.615
41.1582 0.740
41.1889 0.781
41.2195 0.604
41.2502 0.885
41.2809 0.646
41.3116 0.812
41.3422 0.781
41.3729 0.875
41.4036 0.854
41.4343 0.906
41.4650 0.781
41.4956 0.885
41.5263 0.687
41.5570 1.146
41.5877 1.125
41.6184 1.208
41.6490 1.146
41.6797 1.281
41.7104 1.219
41.7411 1.552
41.7718 1.750
41.8024 2.188
41.8331 2.989
41.8638 3.041
41.8945 3.937
41.9251 4.854
41.9558 7.052
41.9865 10.240
42.0172 17.072
42.0479 29.269
42.0785 42.299
42.1092 44.480
42.1399 35.501
42.1706 31.105
42.2013 29.248
42.2319 21.873
42.2626 15.207
42.2933 8.771
42.3240 6.052
42.3547 3.677
42.3853 2.854
42.4160 2.083
42.4467 2.094
42.4774 1.656
42.5080 1.385
42.5387 1.646
42.5694 1.104
42.6001 1.010
42.6308 1.104
42.6614 1.052
42.6921 1.000
42.7228 0.896
42.7535 0.969
42.7842 0.823
42.8148 0.979
42.8455 1.000
42.8762 0.896
42.9069 0.781
42.9376 0.948
42.9682 0.927
42.9989 0.854
43.0296 0.740
43.0603 0.781
43.0909 0.781
43.1216 0.906
43.1523 0.844
43.1830 0.750
43.2137 0.740
43.2443 0.938
43.2750 0.844
43.3057 0.740
43.3364 0.729
43.3671 0.740
43.3977 0.823
43.4284 0.937
43.4591 0.771
43.4898 0.635
43.5205 0.917
43.5511 0.823
43.5818 0.552
43.6125 0.802
43.6432 0.510
43.6738 0.802
43.7045 0.625
43.7352 0.646
43.7659 0.552
43.7966 0.687
43.8272 0.687
43.8579 0.740
43.8886 0.677
43.9193 0.802
43.9500 0.844
43.9806 0.844
44.0113 0.865
44.0420 0.844
44.0727 0.594
44.1034 0.677
44.1340 0.896
44.1647 0.719
44.1954 0.771
44.2261 0.677
44.2567 0.677
44.2874 0.698
44.3181 0.594
44.3488 0.750
44.3795 0.687
44.4101 0.594
44.4408 0.667
44.4715 0.688
44.5022 0.646
44.5329 1.000
44.5635 0.906
44.5942 0.823
44.6249 1.063
44.6556 1.031
44.6863 1.323
44.7169 1.906
44.7476 2.937
44.7783 3.323
44.8090 3.073
44.8396 2.385
44.8703 2.406
44.9010 2.208
44.9317 1.979
44.9624 1.313
44.9930 1.063
45.0237 0.927
45.0544 0.698
45.0851 0.698
45.1158 0.823
45.1464 0.615
45.1771 0.594
45.2078 0.719
45.2385 0.906
45.2692 0.583
45.2998 0.615
45.3305 0.719
45.3612 0.469
45.3919 0.646
45.4225 0.687
45.4532 0.490
45.4839 0.625
45.5146 0.552
45.5453 0.396
45.5759 0.635
45.6066 0.615
45.6373 0.708
45.6680 0.500
45.6987 0.604
45.7293 0.573
45.7600 0.646
45.7907 0.531
45.8214 0.646
45.8521 0.615
45.8827 0.604
45.9134 0.635
45.9441 0.635
45.9748 0.604
46.0054 0.573
46.0361 0.594
46.0668 0.635
46.0975 0.531
46.1282 0.646
46.1588 0.812
46.1895 0.521
46.2202 0.625
46.2509 0.583
46.2816 0.562
46.3122 0.479
46.3429 0.687
46.3736 0.708
46.4043 0.521
46.4350 0.552
46.4656 0.562
46.4963 0.573
46.5270 0.604
46.5577 0.677
46.5883 0.531
46.6190 0.667
46.6497 0.552
46.6804 0.594
46.7111 0.698
46.7417 0.469
46.7724 0.552
46.8031 0.573
46.8338 0.698
46.8645 0.677
46.8951 0.625
46.9258 0.813
46.9565 0.573
46.9872 0.625
47.0179 0.729
47.0485 0.677
47.0792 0.490
47.1099 0.625
47.1406 0.531
47.1712 0.531
47.2019 0.760
47.2326 0.656
47.2633 0.625
47.2940 0.615
47.3246 0.573
47.3553 0.500
47.3860 0.698
47.4167 0.698
47.4474 0.625
47.4780 0.625
47.5087 0.646
47.5394 0.646
47.5701 0.490
47.6008 0.615
47.6314 0.635
47.6621 0.594
47.6928 0.750
47.7235 0.750
47.7541 0.812
47.7848 0.604
47.8155 0.760
47.8462 0.698
47.8769 0.760
47.9075 0.625
47.9382 0.677
47.9689 0.698
47.9996 0.792
48.0303 0.656
48.0609 0.625
48.0916 0.667
48.1223 0.594
48.1530 0.896
48.1837 0.573
48.2143 0.729
48.2450 0.729
48.2757 0.823
48.3064 0.865
48.3370 0.635
48.3677 0.885
48.3984 0.927
48.4291 0.792
48.4598 1.021
48.4904 0.979
48.5211 1.146
48.5518 1.000
48.5825 1.188
48.6132 1.239
48.6438 1.614
48.6745 1.396
48.7052 2.000
48.7359 2.104
48.7666 2.916
48.7972 3.656
48.8279 4.583
48.8586 6.625
48.8893 9.500
48.9199 14.417
48.9506 24.706
48.9813 33.622
49.0120 34.872
49.0427 27.126
49.0733 23.730
49.1040 23.675
49.1347 21.478
49.1654 16.176
49.1961 10.999
49.2267 7.292
49.2574 4.948
49.2881 3.906
49.3188 2.979
49.3495 2.156
49.3801 1.667
49.4108 1.729
49.4415 1.656
49.4722 1.146
49.5028 1.177
49.5335 1.083
49.5642 1.365
49.5949 1.042
49.6256 1.021
49.6562 0.792
49.6869 0.708
49.7176 0.917
49.7483 0.802
49.7790 0.833
49.8096 0.875
49.8403 0.771
49.8710 0.906
49.9017 0.823
49.9324 0.771
49.9630 0.708
49.9937 0.865
50.0244 0.812
50.0551 0.958
50.0857 0.719
50.1164 0.677
50.1471 0.823
50.1778 0.729
50.2085 0.802
50.2391 0.802
50.2698 0.677
50.3005 0.594
50.3312 0.708
50.3619 0.573
50.3925 0.771
50.4232 0.719
50.4539 0.583
50.4846 0.719
50.5153 0.677
50.5459 0.792
50.5766 0.833
50.6073 0.729
50.6380 0.698
50.6686 0.646
50.6993 0.625
50.7300 0.792
50.7607 0.729
50.7914 0.771
50.8220 0.740
50.8527 0.844
50.8834 0.635
50.9141 0.594
50.9448 0.750
50.9754 0.656
51.0061 0.729
51.0368 0.740
51.0675 0.740
51.0982 0.740
51.1288 0.802
51.1595 1.042
51.1902 0.969
51.2209 0.906
51.2515 0.729
51.2822 1.104
51.3129 1.375
51.3436 1.896
51.3743 2.406
51.4049 2.375
51.4356 2.416
51.4663 1.948
51.4970 1.771
51.5277 1.948
51.5583 1.708
51.5890 1.260
51.6197 1.073
51.6504 0.792
51.6811 0.833
51.7117 0.625
51.7424 0.729
51.7731 0.521
51.8038 0.885
51.8344 0.635
51.8651 0.531
51.8958 0.573
51.9265 0.615
51.9572 0.646
51.9878 0.531
52.0185 0.521
52.0492 0.698
52.0799 0.698
52.1106 0.740
52.1412 0.750
52.1719 0.750
52.2026 0.750
52.2333 0.833
52.2640 0.583
52.2946 0.813
52.3253 0.719
52.3560 0.646
52.3867 0.573
52.4173 0.510
52.4480 0.625
52.4787 0.677
52.5094 0.760
52.5401 0.615
52.5707 0.615
52.6014 0.615
52.6321 0.490
52.6628 0.635
52.6935 0.615
52.7241 0.521
52.7548 0.437
52.7855 0.625
52.8162 0.625
52.8469 0.594
52.8775 0.625
52.9082 0.677
52.9389 0.687
52.9696 0.458
53.0002 0.625
53.0309 0.531
53.0616 0.583
53.0923 0.656
53.1230 0.708
53.1536 0.531
53.1843 0.750
53.2150 0.490
53.2457 0.729
53.2764 0.531
53.3070 0.521
53.3377 0.615
53.3684 0.562
53.3991 0.646
53.4298 0.531
53.4604 0.990
53.4911 0.708
53.5218 0.698
53.5525 0.448
53.5831 0.552
53.6138 0.521
53.6445 0.635
53.6752 0.635
53.7059 0.615
53.7365 0.490
53.7672 0.646
53.7979 0.604
53.8286 0.583
53.8593 0.677
53.8899 0.594
53.9206 0.677
53.9513 0.552
53.9820 0.677
54.0127 0.521
54.0433 0.677
54.0740 0.458
54.1047 0.625
54.1354 0.719
54.1660 0.677
54.1967 0.656
54.2274 0.594
54.2581 0.771
54.2888 0.708
54.3194 0.531
54.3501 0.635
54.3808 0.667
54.4115 0.563
54.4422 0.729
54.4728 0.917
54.5035 0.552
54.5342 0.667
54.5649 0.698
54.5956 0.813
54.6262 0.740
54.6569 0.844
54.6876 0.656
54.7183 0.729
54.7489 0.844
54.7796 0.990
54.8103 0.917
54.8410 0.990
54.8717 0.969
54.9023 0.990
54.9330 1.292
54.9637 1.281
54.9944 1.708
55.0251 1.906
55.0557 2.510
55.0864 2.938
55.1171 4.531
55.1478 5.645
55.1785 8.697
55.2091 12.801
55.2398 15.749
55.2705 13.927
55.3012 11.344
55.3318 9.636
55.3625 9.239
55.3932 9.905
55.4239 8.041
55.4546 5.729
55.4852 3.823
55.5159 2.583
55.5466 1.989
55.5773 1.542
55.6080 1.531
55.6386 0.958
55.6693 1.010
55.7000 0.969
55.7307 1.073
55.7614 0.917
55.7920 0.885
55.8227 0.771
55.8534 0.875
55.8841 0.750
55.9147 0.833
55.9454 0.542
55.9761 0.760
56.0068 0.698
56.0375 0.708
56.0681 0.604
56.0988 0.781
56.1295 0.698
56.1602 0.667
56.1909 0.750
56.2215 0.510
56.2522 0.656
56.2829 0.635
56.3136 0.677
56.3443 0.719
56.3749 0.635
56.4056 0.573
56.4363 0.583
56.4670 0.687
56.4976 0.792
56.5283 0.542
56.5590 0.802
56.5897 0.594
56.6204 0.604
56.6510 0.510
56.6817 0.625
56.7124 0.708
56.7431 0.604
56.7738 0.594
56.8044 0.490
56.8351 0.562
56.8658 0.646
56.8965 0.583
56.9272 0.615
56.9578 0.531
56.9885 0.698
57.0192 0.719
57.0499 0.521
57.0805 0.573
57.1112 0.667
57.1419 0.521
57.1726 0.677
57.2033 0.531
57.2339 0.594
57.2646 0.646
57.2953 0.552
57.3260 0.771
57.3567 0.646
57.3873 0.938
57.4180 0.906
57.4487 1.135
57.4794 0.979
57.5101 0.844
57.5407 0.979
57.5714 0.979
57.6021 0.927
57.6328 0.854
57.6634 0.719
57.6941 0.740
57.7248 0.844
57.7555 0.750
57.7862 0.615
57.8168 0.740
57.8475 0.917
57.8782 0.823
57.9089 0.917
57.9396 0.969
57.9702 0.927
58.0009 0.979
58.0316 1.604
58.0623 1.635
58.0930 2.500
58.1236 3.229
58.1543 4.698
58.1850 5.364
58.2157 5.270
58.2463 4.000
58.2770 3.604
58.3077 3.740
58.3384 3.458
58.3691 2.844
58.3997 2.625
58.4304 1.937
58.4611 1.448
58.4918 1.135
58.5225 1.063
58.5531 0.906
58.5838 0.760
58.6145 0.875
58.6452 0.813
58.6759 0.740
58.7065 0.781
58.7372 0.823
58.7679 0.510
58.7986 0.479
58.8292 0.594
58.8599 0.656
58.8906 0.615
58.9213 0.646
58.9520 0.646
58.9826 0.625
59.0133 0.656
59.0440 0.542
59.0747 0.562
59.1054 0.615
59.1360 0.708
59.1667 0.635
59.1974 0.646
59.2281 0.615
59.2588 0.490
59.2894 0.667
59.3201 0.531
59.3508 0.521
59.3815 0.635
59.4121 0.552
59.4428 0.677
59.4735 0.698
59.5042 0.635
59.5349 0.615
59.5655 0.583
59.5962 0.625
59.6269 0.594
59.6576 0.646
59.6883 0.677
59.7189 0.542
59.7496 0.708
59.7803 0.698
59.8110 0.531
59.8417 0.458
59.8723 0.656
59.9030 0.688
59.9337 0.490
59.9644 0.510
59.9950 0.437
60.0257 0.615
60.0564 0.812
60.0871 0.792
60.1178 0.521
60.1484 0.542
60.1791 0.552
60.2098 0.594
60.2405 0.542
60.2712 0.656
60.3018 0.458
60.3325 0.646
60.3632 0.594
60.3939 0.656
60.4246 0.771
60.4552 0.750
60.4859 0.635
60.5166 0.792
60.5473 0.635
60.5779 0.698
60.6086 0.865
60.6393 0.802
60.6700 0.688
60.7007 0.917
60.7313 1.062
60.7620 0.990
60.7927 1.250
60.8234 1.604
60.8541 2.125
60.8847 3.010
60.9154 3.312
60.9461 5.156
60.9768 7.313
61.0075 11.875
61.0381 17.217
61.0688 17.624
61.0995 12.926
61.1302 8.886
61.1608 8.365
61.1915 9.926
61.2222 10.812
61.2529 8.718
61.2836 6.031
61.3142 3.458
61.3449 2.542
61.3756 2.083
61.4063 1.562
61.4370 1.260
61.4676 1.052
61.4983 1.177
61.5290 0.781
61.5597 0.896
61.5904 0.677
61.6210 0.719
61.6517 0.719
61.6824 0.865
61.7131 0.708
61.7437 0.708
61.7744 0.750
61.8051 0.677
61.8358 0.740
61.8665 0.677
61.8971 0.698
61.9278 0.635
61.9585 0.573
61.9892 0.677
62.0199 0.750
62.0505 0.646
62.0812 0.458
62.1119 0.682
62.1426 0.721
62.1733 0.547
62.2039 0.650
62.2346 0.734
62.2653 0.543
62.2960 0.706
62.3266 0.487
62.3573 0.653
62.3880 0.684
62.4187 0.540
62.4494 0.688
62.4800 0.757
62.5107 0.705
62.5414 0.714
62.5721 0.698
62.6028 0.631
62.6334 0.703
62.6641 0.712
62.6948 0.708
62.7255 0.704
62.7562 0.714
62.7868 0.696
62.8175 0.526
62.8482 0.786
62.8789 0.484
62.9095 0.866
62.9402 0.659
62.9709 0.907
63.0016 0.709
63.0323 0.889
63.0629 1.121
63.0936 1.549
63.1243 1.494
63.1550 1.633
63.1857 1.394
63.2163 1.451
63.2470 1.253
63.2777 1.450
63.3084 0.942
63.3391 1.213
63.3697 0.793
63.4004 0.770
63.4311 0.574
63.4618 0.605
63.4924 0.716
63.5231 0.487
63.5538 0.560
63.5845 0.656
63.6152 0.778
63.6458 0.376
63.6765 0.520
63.7072 0.555
63.7379 0.686
63.7686 0.751
63.7992 0.596
63.8299 0.637
63.8606 0.601
63.8913 0.510
63.9220 0.579
63.9526 0.397
63.9833 0.788
64.0140 0.632
64.0447 0.496
64.0753 0.544
64.1060 0.562
64.1367 0.410
64.1674 0.389
64.1981 0.697
64.2287 0.419
64.2594 0.396
64.2901 0.618
64.3208 0.344
64.3515 0.629
64.3821 0.518
64.4128 0.642
64.4435 0.416
64.4742 0.493
64.5049 0.290
64.5355 0.369
64.5662 0.066
64.5969 0.070
64.6276 0.151
64.6582 0.245
64.6889 0.000
64.7196 0.098
64.7503 0.000
64.7810 0.000
64.8116 0.000
64.8423 0.000
64.8730 0.000
64.9037 0.000
64.9344 0.308
64.9650 0.000
64.9957 0.000
