'Id: "" Comment: "" Operator: "Lab Manager" Anode: "Cu" Scantype: "Coupled TwoTheta/Theta (VDO)" TimePerStep: "92.00057" 
6.0001 1.148
6.0308 2.449
6.0615 1.105
6.0921 1.563
6.1228 2.945
6.1535 2.097
6.1842 1.601
6.2149 2.070
6.2455 2.082
6.2762 2.056
6.3069 2.811
6.3376 2.226
6.3682 2.182
6.3989 1.859
6.4296 2.084
6.4603 1.416
6.4910 1.545
6.5216 1.580
6.5523 1.508
6.5830 1.301
6.6137 1.508
6.6444 1.725
6.6750 1.470
6.7057 1.808
6.7364 1.668
6.7671 1.463
6.7978 1.905
6.8284 1.804
6.8591 1.657
6.8898 1.745
6.9205 1.733
6.9511 1.626
6.9818 1.701
7.0125 1.726
7.0432 2.000
7.0739 1.736
7.1045 1.471
7.1352 1.542
7.1659 1.810
7.1966 1.705
7.2273 1.813
7.2579 1.582
7.2886 1.733
7.3193 1.294
7.3500 1.304
7.3807 1.469
7.4113 1.565
7.4420 1.640
7.4727 1.543
7.5034 1.514
7.5340 1.569
7.5647 1.620
7.5954 1.137
7.6261 1.597
7.6568 1.917
7.6874 1.732
7.7181 1.329
7.7488 1.796
7.7795 1.284
7.8102 1.858
7.8408 1.498
7.8715 1.667
7.9022 1.510
7.9329 1.690
7.9636 1.377
7.9942 1.516
8.0249 1.610
8.0556 1.419
8.0863 1.543
8.1169 1.597
8.1476 1.465
8.1783 1.506
8.2090 1.472
8.2397 1.392
8.2703 1.483
8.3010 1.453
8.3317 1.407
8.3624 1.362
8.3931 1.651
8.4237 1.386
8.4544 1.309
8.4851 1.277
8.5158 1.617
8.5465 1.457
8.5771 1.226
8.6078 1.503
8.6385 1.329
8.6692 1.384
8.6998 1.213
8.7305 1.314
8.7612 1.407
8.7919 1.161
8.8226 1.295
8.8532 1.216
8.8839 1.227
8.9146 1.172
8.9453 1.281
8.9760 1.131
9.0066 1.114
9.0373 1.267
9.0680 1.326
9.0987 1.154
9.1294 1.227
9.1600 1.210
9.1907 1.033
9.2214 1.157
9.2521 0.925
9.2827 1.283
9.3134 1.037
9.3441 1.146
9.3748 1.228
9.4055 0.992
9.4361 1.100
9.4668 1.063
9.4975 0.990
9.5282 1.021
9.5589 1.083
9.5895 1.031
9.6202 1.042
9.6509 0.937
9.6816 0.958
9.7123 1.094
9.7429 0.896
9.7736 0.990
9.8043 0.885
9.8350 0.896
9.8656 1.062
9.8963 0.937
9.9270 0.802
9.9577 1.052
9.9884 0.813
10.0190 0.875
10.0497 0.927
10.0804 0.896
10.1111 0.927
10.1418 0.875
10.1724 0.875
10.2031 0.760
10.2338 0.906
10.2645 0.844
10.2952 1.010
10.3258 0.938
10.3565 0.885
10.3872 0.896
10.4179 0.833
10.4485 0.896
10.4792 0.740
10.5099 0.792
10.5406 0.958
10.5713 0.906
10.6019 0.865
10.6326 0.875
10.6633 0.813
10.6940 1.042
10.7247 0.625
10.7553 0.854
10.7860 1.021
10.8167 0.813
10.8474 0.740
10.8781 0.823
10.9087 0.760
10.9394 0.729
10.9701 0.760
11.0008 0.729
11.0314 0.729
11.0621 0.771
11.0928 0.792
11.1235 0.708
11.1542 0.667
11.1848 0.833
11.2155 0.792
11.2462 0.719
11.2769 0.667
11.3076 0.698
11.3382 0.812
11.3689 0.688
11.3996 0.667
11.4303 0.917
11.4610 0.750
11.4916 0.833
11.5223 0.656
11.5530 0.708
11.5837 0.833
11.6143 0.740
11.6450 0.656
11.6757 0.646
11.7064 0.625
11.7371 0.604
11.7677 0.750
11.7984 0.865
11.8291 0.677
11.8598 0.573
11.8905 0.792
11.9211 0.729
11.9518 0.667
11.9825 0.750
12.0132 0.698
12.0439 0.542
12.0745 0.844
12.1052 0.698
12.1359 0.490
12.1666 0.833
12.1972 0.458
12.2279 0.635
12.2586 0.573
12.2893 0.688
12.3200 0.656
12.3506 0.771
12.3813 0.562
12.4120 0.667
12.4427 0.615
12.4734 0.563
12.5040 0.562
12.5347 0.521
12.5654 0.521
12.5961 0.604
12.6268 0.646
12.6574 0.635
12.6881 0.583
12.7188 0.656
12.7495 0.677
12.7801 0.500
12.8108 0.563
12.8415 0.656
12.8722 0.542
12.9029 0.510
12.9335 0.719
12.9642 0.458
12.9949 0.490
13.0256 0.646
13.0563 0.583
13.0869 0.542
13.1176 0.646
13.1483 0.573
13.1790 0.677
13.2097 0.823
13.2403 0.604
13.2710 0.677
13.3017 0.563
13.3324 0.677
13.3630 0.698
13.3937 0.562
13.4244 0.469
13.4551 0.542
13.4858 0.531
13.5164 0.531
13.5471 0.427
13.5778 0.583
13.6085 0.510
13.6392 0.490
13.6698 0.552
13.7005 0.563
13.7312 0.479
13.7619 0.708
13.7926 0.698
13.8232 0.625
13.8539 0.583
13.8846 0.563
13.9153 0.583
13.9459 0.667
13.9766 0.625
14.0073 0.844
14.0380 0.604
14.0687 0.604
14.0993 0.760
14.1300 0.583
14.1607 0.844
14.1914 0.833
14.2221 0.844
14.2527 0.792
14.2834 1.094
14.3141 0.844
14.3448 1.333
14.3755 1.604
14.4061 2.177
14.4368 3.604
14.4675 5.947
14.4982 11.030
14.5288 23.342
14.5595 48.949
14.5902 61.825
14.6209 33.789
14.6516 9.718
14.6822 3.510
14.7129 2.104
14.7436 1.500
14.7743 1.115
14.8050 0.875
14.8356 0.948
14.8663 0.771
14.8970 0.708
14.9277 0.802
14.9584 0.667
14.9890 0.802
15.0197 0.802
15.0504 0.656
15.0811 0.646
15.1117 0.552
15.1424 0.573
15.1731 0.646
15.2038 0.604
15.2345 0.510
15.2651 0.562
15.2958 0.469
15.3265 0.656
15.3572 0.635
15.3879 0.562
15.4185 0.656
15.4492 0.667
15.4799 0.406
15.5106 0.531
15.5413 0.542
15.5719 0.469
15.6026 0.396
15.6333 0.500
15.6640 0.531
15.6946 0.573
15.7253 0.490
15.7560 0.500
15.7867 0.417
15.8174 0.385
15.8480 0.583
15.8787 0.427
15.9094 0.500
15.9401 0.490
15.9708 0.458
16.0014 0.552
16.0321 0.479
16.0628 0.385
16.0935 0.562
16.1242 0.417
16.1548 0.458
16.1855 0.406
16.2162 0.510
16.2469 0.417
16.2775 0.385
16.3082 0.479
16.3389 0.281
16.3696 0.427
16.4003 0.427
16.4309 0.427
16.4616 0.552
16.4923 0.469
16.5230 0.563
16.5537 0.490
16.5843 0.552
16.6150 0.437
16.6457 0.500
16.6764 0.469
16.7071 0.594
16.7377 0.594
16.7684 1.219
16.7991 1.667
16.8298 3.208
16.8604 3.542
16.8911 2.573
16.9218 0.896
16.9525 0.625
16.9832 0.635
17.0138 0.500
17.0445 0.438
17.0752 0.438
17.1059 0.458
17.1366 0.354
17.1672 0.385
17.1979 0.385
17.2286 0.438
17.2593 0.365
17.2900 0.510
17.3206 0.375
17.3513 0.427
17.3820 0.427
17.4127 0.427
17.4433 0.406
17.4740 0.344
17.5047 0.448
17.5354 0.437
17.5661 0.260
17.5967 0.354
17.6274 0.281
17.6581 0.385
17.6888 0.406
17.7195 0.406
17.7501 0.406
17.7808 0.406
17.8115 0.406
17.8422 0.521
17.8729 0.417
17.9035 0.406
17.9342 0.469
17.9649 0.344
17.9956 0.375
18.0262 0.448
18.0569 0.396
18.0876 0.469
18.1183 0.406
18.1490 0.531
18.1796 0.406
18.2103 0.365
18.2410 0.323
18.2717 0.437
18.3024 0.365
18.3330 0.344
18.3637 0.500
18.3944 0.469
18.4251 0.396
18.4558 0.490
18.4864 0.344
18.5171 0.302
18.5478 0.375
18.5785 0.365
18.6091 0.323
18.6398 0.458
18.6705 0.469
18.7012 0.354
18.7319 0.385
18.7625 0.365
18.7932 0.385
18.8239 0.292
18.8546 0.344
18.8853 0.375
18.9159 0.500
18.9466 0.354
18.9773 0.396
19.0080 0.469
19.0387 0.365
19.0693 0.406
19.1000 0.396
19.1307 0.375
19.1614 0.302
19.1920 0.396
19.2227 0.438
19.2534 0.375
19.2841 0.354
19.3148 0.375
19.3454 0.438
19.3761 0.469
19.4068 0.552
19.4375 0.406
19.4682 0.437
19.4988 0.458
19.5295 0.500
19.5602 0.302
19.5909 0.500
19.6216 0.354
19.6522 0.417
19.6829 0.437
19.7136 0.271
19.7443 0.365
19.7749 0.344
19.8056 0.333
19.8363 0.417
19.8670 0.375
19.8977 0.302
19.9283 0.438
19.9590 0.479
19.9897 0.396
20.0204 0.448
20.0511 0.458
20.0817 0.333
20.1124 0.417
20.1431 0.302
20.1738 0.458
20.2045 0.406
20.2351 0.365
20.2658 0.385
20.2965 0.365
20.3272 0.344
20.3578 0.354
20.3885 0.406
20.4192 0.344
20.4499 0.417
20.4806 0.396
20.5112 0.354
20.5419 0.385
20.5726 0.437
20.6033 0.385
20.6340 0.375
20.6646 0.417
20.6953 0.354
20.7260 0.448
20.7567 0.562
20.7874 0.323
20.8180 0.313
20.8487 0.385
20.8794 0.448
20.9101 0.333
20.9407 0.479
20.9714 0.354
21.0021 0.490
21.0328 0.312
21.0635 0.417
21.0941 0.333
21.1248 0.500
21.1555 0.406
21.1862 0.406
21.2169 0.448
21.2475 0.500
21.2782 0.458
21.3089 0.417
21.3396 0.521
21.3703 0.458
21.4009 0.469
21.4316 0.458
21.4623 0.385
21.4930 0.573
21.5236 0.448
21.5543 0.688
21.5850 0.729
21.6157 0.500
21.6464 0.469
21.6770 0.323
21.7077 0.510
21.7384 0.344
21.7691 0.406
21.7998 0.437
21.8304 0.479
21.8611 0.490
21.8918 0.479
21.9225 0.437
21.9532 0.500
21.9838 0.427
22.0145 0.531
22.0452 0.458
22.0759 0.417
22.1065 0.562
22.1372 0.406
22.1679 0.542
22.1986 0.385
22.2293 0.365
22.2599 0.500
22.2906 0.458
22.3213 0.521
22.3520 0.396
22.3827 0.542
22.4133 0.417
22.4440 0.521
22.4747 0.458
22.5054 0.510
22.5361 0.396
22.5667 0.635
22.5974 0.573
22.6281 0.500
22.6588 0.625
22.6894 0.531
22.7201 0.552
22.7508 0.667
22.7815 0.615
22.8122 0.552
22.8428 0.719
22.8735 0.500
22.9042 0.552
22.9349 0.667
22.9656 0.635
22.9962 0.698
23.0269 0.656
23.0576 0.750
23.0883 0.698
23.1190 0.667
23.1496 0.781
23.1803 0.802
23.2110 0.844
23.2417 0.698
23.2723 0.823
23.3030 0.760
23.3337 0.844
23.3644 0.865
23.3951 0.812
23.4257 0.927
23.4564 1.135
23.4871 1.417
23.5178 1.271
23.5485 1.604
23.5791 1.812
23.6098 2.344
23.6405 3.000
23.6712 4.250
23.7019 5.010
23.7325 7.135
23.7632 10.812
23.7939 17.436
23.8246 35.366
23.8552 79.627
23.8859 150.572
23.9166 145.958
23.9473 108.533
23.9780 69.023
24.0086 27.730
24.0393 12.094
24.0700 6.906
24.1007 4.281
24.1314 3.323
24.1620 2.104
24.1927 1.948
24.2234 1.739
24.2541 1.521
24.2848 1.427
24.3154 1.250
24.3461 1.271
24.3768 1.188
24.4075 1.146
24.4381 1.094
24.4688 0.885
24.4995 1.104
24.5302 0.885
24.5609 0.917
24.5915 0.927
24.6222 0.760
24.6529 1.031
24.6836 0.865
24.7143 0.844
24.7449 0.792
24.7756 0.906
24.8063 0.781
24.8370 0.625
24.8677 0.708
24.8983 0.698
24.9290 0.760
24.9597 0.708
24.9904 0.583
25.0210 0.729
25.0517 0.688
25.0824 0.625
25.1131 0.646
25.1438 0.646
25.1744 0.562
25.2051 0.667
25.2358 0.552
25.2665 0.677
25.2972 0.698
25.3278 0.698
25.3585 0.562
25.3892 0.542
25.4199 0.604
25.4506 0.677
25.4812 0.542
25.5119 0.427
25.5426 0.542
25.5733 0.469
25.6039 0.583
25.6346 0.656
25.6653 0.500
25.6960 0.458
25.7267 0.469
25.7573 0.365
25.7880 0.427
25.8187 0.385
25.8494 0.500
25.8801 0.531
25.9107 0.521
25.9414 0.448
25.9721 0.396
26.0028 0.437
26.0335 0.500
26.0641 0.500
26.0948 0.531
26.1255 0.344
26.1562 0.479
26.1868 0.448
26.2175 0.396
26.2482 0.604
26.2789 0.531
26.3096 0.438
26.3402 0.375
26.3709 0.510
26.4016 0.458
26.4323 0.542
26.4630 0.615
26.4936 0.573
26.5243 0.615
26.5550 0.562
26.5857 0.448
26.6164 0.469
26.6470 0.552
26.6777 0.479
26.7084 0.396
26.7391 0.656
26.7697 0.427
26.8004 0.479
26.8311 0.521
26.8618 0.573
26.8925 0.510
26.9231 0.427
26.9538 0.469
26.9845 0.490
27.0152 0.531
27.0459 0.469
27.0765 0.552
27.1072 0.604
27.1379 0.510
27.1686 0.448
27.1993 0.448
27.2299 0.521
27.2606 0.510
27.2913 0.500
27.3220 0.469
27.3526 0.437
27.3833 0.583
27.4140 0.552
27.4447 0.510
27.4754 0.646
27.5060 0.687
27.5367 0.427
27.5674 0.552
27.5981 0.490
27.6288 0.552
27.6594 0.448
27.6901 0.729
27.7208 0.583
27.7515 0.500
27.7822 0.760
27.8128 0.656
27.8435 0.781
27.8742 0.948
27.9049 0.990
27.9355 1.427
27.9662 1.625
27.9969 2.323
28.0276 4.021
28.0583 8.572
28.0889 13.917
28.1196 12.334
28.1503 8.968
28.1810 7.593
28.2117 3.604
28.2423 2.063
28.2730 1.385
28.3037 1.125
28.3344 0.708
28.3651 0.792
28.3957 0.833
28.4264 0.792
28.4571 0.823
28.4878 0.604
28.5184 0.635
28.5491 0.719
28.5798 0.677
28.6105 0.594
28.6412 0.781
28.6718 0.854
28.7025 0.750
28.7332 0.698
28.7639 0.698
28.7946 0.865
28.8252 0.740
28.8559 0.833
28.8866 0.781
28.9173 0.885
28.9480 0.781
28.9786 0.969
29.0093 1.000
29.0400 1.354
29.0707 1.479
29.1013 1.594
29.1320 2.031
29.1627 2.573
29.1934 3.385
29.2241 5.135
29.2547 7.104
29.2854 12.978
29.3161 27.407
29.3468 63.283
29.3775 91.826
29.4081 58.527
29.4388 55.215
29.4695 39.080
29.5002 15.271
29.5309 7.406
29.5615 4.208
29.5922 2.927
29.6229 2.052
29.6536 1.500
29.6842 1.396
29.7149 1.323
29.7456 1.135
29.7763 1.083
29.8070 1.114
29.8376 1.083
29.8683 0.823
29.8990 0.917
29.9297 0.917
29.9604 0.885
29.9910 0.844
30.0217 0.906
30.0524 0.948
30.0831 0.729
30.1138 0.687
30.1444 0.760
30.1751 0.844
30.2058 0.625
30.2365 0.656
30.2671 0.604
30.2978 0.812
30.3285 0.760
30.3592 0.615
30.3899 0.563
30.4205 0.740
30.4512 0.594
30.4819 0.542
30.5126 0.708
30.5433 0.677
30.5739 0.635
30.6046 0.688
30.6353 0.781
30.6660 0.719
30.6967 0.729
30.7273 0.646
30.7580 0.656
30.7887 0.469
30.8194 0.677
30.8500 0.542
30.8807 0.729
30.9114 0.750
30.9421 0.594
30.9728 0.552
31.0034 0.552
31.0341 0.542
31.0648 0.719
31.0955 0.521
31.1262 0.490
31.1568 0.667
31.1875 0.583
31.2182 0.646
31.2489 0.615
31.2796 0.563
31.3102 0.479
31.3409 0.677
31.3716 0.573
31.4023 0.646
31.4329 0.688
31.4636 0.625
31.4943 0.708
31.5250 0.531
31.5557 0.542
31.5863 0.750
31.6170 0.458
31.6477 0.531
31.6784 0.500
31.7091 0.562
31.7397 0.667
31.7704 0.510
31.8011 0.521
31.8318 0.490
31.8625 0.604
31.8931 0.490
31.9238 0.521
31.9545 0.625
31.9852 0.531
32.0158 0.615
32.0465 0.500
32.0772 0.521
32.1079 0.562
32.1386 0.563
32.1692 0.625
32.1999 0.479
32.2306 0.573
32.2613 0.458
32.2920 0.490
32.3226 0.490
32.3533 0.729
32.3840 0.510
32.4147 0.490
32.4454 0.583
32.4760 0.573
32.5067 0.615
32.5374 0.313
32.5681 0.583
32.5987 0.552
32.6294 0.615
32.6601 0.635
32.6908 0.604
32.7215 0.625
32.7521 0.625
32.7828 0.542
32.8135 0.635
32.8442 0.698
32.8749 0.573
32.9055 0.656
32.9362 0.635
32.9669 0.469
32.9976 0.687
33.0283 0.625
33.0589 0.646
33.0896 0.729
33.1203 0.615
33.1510 0.604
33.1816 0.812
33.2123 0.635
33.2430 0.667
33.2737 0.740
33.3044 0.687
33.3350 0.760
33.3657 0.708
33.3964 0.812
33.4271 0.615
33.4578 1.052
33.4884 0.823
33.5191 0.854
33.5498 0.854
33.5805 0.854
33.6112 1.115
33.6418 1.167
33.6725 1.448
33.7032 1.333
33.7339 1.646
33.7645 2.344
33.7952 3.740
33.8259 5.281
33.8566 5.312
33.8873 7.708
33.9179 9.646
33.9486 15.178
33.9793 28.615
34.0100 60.600
34.0407 95.024
34.0713 65.755
34.1020 51.996
34.1327 51.699
34.1634 27.553
34.1941 12.937
34.2247 7.083
34.2554 4.385
34.2861 3.073
34.3168 2.417
34.3474 2.177
34.3781 1.156
34.4088 1.521
34.4395 1.437
34.4702 1.229
34.5008 1.094
34.5315 1.198
34.5622 1.062
34.5929 1.000
34.6236 0.906
34.6542 1.021
34.6849 0.917
34.7156 1.094
34.7463 0.760
34.7770 0.854
34.8076 0.781
34.8383 0.833
34.8690 0.896
34.8997 0.865
34.9303 0.625
34.9610 0.740
34.9917 0.760
35.0224 0.750
35.0531 0.625
35.0837 0.687
35.1144 0.646
35.1451 0.719
35.1758 0.646
35.2065 0.781
35.2371 0.667
35.2678 0.656
35.2985 0.490
35.3292 0.698
35.3599 0.531
35.3905 0.646
35.4212 0.729
35.4519 0.687
35.4826 0.573
35.5132 0.625
35.5439 0.531
35.5746 0.552
35.6053 0.594
35.6360 0.583
35.6666 0.542
35.6973 0.531
35.7280 0.573
35.7587 0.656
35.7894 0.635
35.8200 0.594
35.8507 0.719
35.8814 0.552
35.9121 0.490
35.9428 0.490
35.9734 0.510
36.0041 0.437
36.0348 0.479
36.0655 0.677
36.0961 0.490
36.1268 0.583
36.1575 0.625
36.1882 0.562
36.2189 0.656
36.2495 0.500
36.2802 0.448
36.3109 0.573
36.3416 0.542
36.3723 0.510
36.4029 0.417
36.4336 0.583
36.4643 0.396
36.4950 0.552
36.5257 0.417
36.5563 0.469
36.5870 0.510
36.6177 0.396
36.6484 0.521
36.6790 0.458
36.7097 0.583
36.7404 0.490
36.7711 0.552
36.8018 0.479
36.8324 0.448
36.8631 0.635
36.8938 0.510
36.9245 0.604
36.9552 0.448
36.9858 0.469
37.0165 0.458
37.0472 0.865
37.0779 0.927
37.1086 1.156
37.1392 1.750
37.1699 3.000
37.2006 3.990
37.2313 3.177
37.2619 2.125
37.2926 2.375
37.3233 1.719
37.3540 1.156
37.3847 0.708
37.4153 0.656
37.4460 0.437
37.4767 0.448
37.5074 0.531
37.5381 0.531
37.5687 0.448
37.5994 0.500
37.6301 0.552
37.6608 0.542
37.6915 0.740
37.7221 0.573
37.7528 0.594
37.7835 0.562
37.8142 0.615
37.8448 0.521
37.8755 0.563
37.9062 0.563
37.9369 0.406
37.9676 0.594
37.9982 0.521
38.0289 0.594
38.0596 0.510
38.0903 0.687
38.1210 0.802
38.1516 0.781
38.1823 1.510
38.2130 1.448
38.2437 1.375
38.2744 1.323
38.3050 1.177
38.3357 0.781
38.3664 0.677
38.3971 0.719
38.4277 0.490
38.4584 0.437
38.4891 0.656
38.5198 0.510
38.5505 0.438
38.5811 0.458
38.6118 0.479
38.6425 0.458
38.6732 0.562
38.7039 0.531
38.7345 0.573
38.7652 0.417
38.7959 0.625
38.8266 0.479
38.8573 0.583
38.8879 0.573
38.9186 0.510
38.9493 0.396
38.9800 0.458
39.0106 0.604
39.0413 0.490
39.0720 0.510
39.1027 0.469
39.1334 0.479
39.1640 0.448
39.1947 0.625
39.2254 0.396
39.2561 0.500
39.2868 0.625
39.3174 0.594
39.3481 0.521
39.3788 0.594
39.4095 0.521
39.4402 0.469
39.4708 0.448
39.5015 0.531
39.5322 0.521
39.5629 0.500
39.5935 0.542
39.6242 0.510
39.6549 0.510
39.6856 0.500
39.7163 0.479
39.7469 0.437
39.7776 0.469
39.8083 0.510
39.8390 0.479
39.8697 0.458
39.9003 0.562
39.9310 0.521
39.9617 0.490
39.9924 0.458
40.0231 0.563
40.0537 0.542
40.0844 0.583
40.1151 0.604
40.1458 0.615
40.1764 0.458
40.2071 0.500
40.2378 0.437
40.2685 0.562
40.2992 0.510
40.3298 0.427
40.3605 0.510
40.3912 0.667
40.4219 0.594
40.4526 0.625
40.4832 0.562
40.5139 0.604
40.5446 0.615
40.5753 0.667
40.6060 0.427
40.6366 0.604
40.6673 0.719
40.6980 0.646
40.7287 0.458
40.7593 0.583
40.7900 0.521
40.8207 0.615
40.8514 0.552
40.8821 0.635
40.9127 0.646
40.9434 0.635
40.9741 0.500
41.0048 0.625
41.0355 0.677
41.0661 0.448
41.0968 0.594
41.1275 0.531
41.1582 0.625
41.1889 0.729
41.2195 0.615
41.2502 0.573
41.2809 0.615
41.3116 0.573
41.3422 0.760
41.3729 0.583
41.4036 0.792
41.4343 0.729
41.4650 0.760
41.4956 0.844
41.5263 0.812
41.5570 0.865
41.5877 1.010
41.6184 0.958
41.6490 1.323
41.6797 1.469
41.7104 1.760
41.7411 2.063
41.7718 3.052
41.8024 3.719
41.8331 4.927
41.8638 6.135
41.8945 8.718
41.9251 12.791
41.9558 23.459
41.9865 38.272
42.0172 45.392
42.0479 33.799
42.0785 27.467
42.1092 28.292
42.1399 22.396
42.1706 13.000
42.2013 7.822
42.2319 4.500
42.2626 2.989
42.2933 2.427
42.3240 1.948
42.3547 1.656
42.3853 1.396
42.4160 1.302
42.4467 1.073
42.4774 1.146
42.5080 0.896
42.5387 0.854
42.5694 0.740
42.6001 0.760
42.6308 0.771
42.6614 0.896
42.6921 0.813
42.7228 0.833
42.7535 0.750
42.7842 0.677
42.8148 0.708
42.8455 0.750
42.8762 0.823
42.9069 0.677
42.9376 0.500
42.9682 0.604
42.9989 0.688
43.0296 0.531
43.0603 0.781
43.0909 0.552
43.1216 0.667
43.1523 0.719
43.1830 0.698
43.2137 0.531
43.2443 0.635
43.2750 0.625
43.3057 0.625
43.3364 0.573
43.3671 0.708
43.3977 0.615
43.4284 0.583
43.4591 0.708
43.4898 0.573
43.5205 0.573
43.5511 0.458
43.5818 0.594
43.6125 0.698
43.6432 0.615
43.6738 0.667
43.7045 0.604
43.7352 0.781
43.7659 0.667
43.7966 0.740
43.8272 0.646
43.8579 0.583
43.8886 0.510
43.9193 0.708
43.9500 0.646
43.9806 0.615
44.0113 0.521
44.0420 0.542
44.0727 0.625
44.1034 0.396
44.1340 0.479
44.1647 0.615
44.1954 0.510
44.2261 0.563
44.2567 0.542
44.2874 0.594
44.3181 0.583
44.3488 0.687
44.3795 0.792
44.4101 0.719
44.4408 0.906
44.4715 0.771
44.5022 0.906
44.5329 1.135
44.5635 1.385
44.5942 1.823
44.6249 2.531
44.6556 4.688
44.6863 5.697
44.7169 5.135
44.7476 3.937
44.7783 3.604
44.8090 3.844
44.8396 2.437
44.8703 1.500
44.9010 1.167
44.9317 0.937
44.9624 0.781
44.9930 0.688
45.0237 0.583
45.0544 0.750
45.0851 0.552
45.1158 0.687
45.1464 0.573
45.1771 0.615
45.2078 0.708
45.2385 0.573
45.2692 0.490
45.2998 0.531
45.3305 0.583
45.3612 0.688
45.3919 0.573
45.4225 0.542
45.4532 0.719
45.4839 0.542
45.5146 0.510
45.5453 0.490
45.5759 0.562
45.6066 0.417
45.6373 0.500
45.6680 0.521
45.6987 0.552
45.7293 0.604
45.7600 0.479
45.7907 0.437
45.8214 0.490
45.8521 0.417
45.8827 0.531
45.9134 0.510
45.9441 0.594
45.9748 0.552
46.0054 0.552
46.0361 0.490
46.0668 0.594
46.0975 0.542
46.1282 0.542
46.1588 0.458
46.1895 0.531
46.2202 0.490
46.2509 0.417
46.2816 0.510
46.3122 0.604
46.3429 0.542
46.3736 0.510
46.4043 0.490
46.4350 0.396
46.4656 0.615
46.4963 0.490
46.5270 0.510
46.5577 0.510
46.5883 0.500
46.6190 0.479
46.6497 0.417
46.6804 0.531
46.7111 0.510
46.7417 0.531
46.7724 0.583
46.8031 0.552
46.8338 0.510
46.8645 0.531
46.8951 0.500
46.9258 0.510
46.9565 0.479
46.9872 0.521
47.0179 0.406
47.0485 0.615
47.0792 0.542
47.1099 0.365
47.1406 0.490
47.1712 0.406
47.2019 0.542
47.2326 0.458
47.2633 0.521
47.2940 0.469
47.3246 0.615
47.3553 0.510
47.3860 0.406
47.4167 0.542
47.4474 0.542
47.4780 0.625
47.5087 0.458
47.5394 0.531
47.5701 0.490
47.6008 0.448
47.6314 0.552
47.6621 0.531
47.6928 0.500
47.7235 0.531
47.7541 0.583
47.7848 0.563
47.8155 0.542
47.8462 0.542
47.8769 0.510
47.9075 0.615
47.9382 0.479
47.9689 0.729
47.9996 0.583
48.0303 0.469
48.0609 0.552
48.0916 0.615
48.1223 0.562
48.1530 0.635
48.1837 0.604
48.2143 0.635
48.2450 0.604
48.2757 0.687
48.3064 0.708
48.3370 0.802
48.3677 0.802
48.3984 0.698
48.4291 0.875
48.4598 0.865
48.4904 1.062
48.5211 1.115
48.5518 1.229
48.5825 1.375
48.6132 1.583
48.6438 2.364
48.6745 3.229
48.7052 3.563
48.7359 4.688
48.7666 6.354
48.7972 8.708
48.8279 15.155
48.8586 25.063
48.8893 34.188
48.9199 29.386
48.9506 21.342
48.9813 18.592
49.0120 20.238
49.0427 17.136
49.0733 12.167
49.1040 7.333
49.1347 5.062
49.1654 3.229
49.1961 2.396
49.2267 1.948
49.2574 1.625
49.2881 1.260
49.3188 1.396
49.3495 1.198
49.3801 0.948
49.4108 1.042
49.4415 0.875
49.4722 0.844
49.5028 0.844
49.5335 0.885
49.5642 0.781
49.5949 0.656
49.6256 0.573
49.6562 0.708
49.6869 0.750
49.7176 0.677
49.7483 0.531
49.7790 0.802
49.8096 0.635
49.8403 0.479
49.8710 0.625
49.9017 0.604
49.9324 0.510
49.9630 0.594
49.9937 0.521
50.0244 0.656
50.0551 0.458
50.0857 0.646
50.1164 0.604
50.1471 0.542
50.1778 0.583
50.2085 0.562
50.2391 0.625
50.2698 0.583
50.3005 0.531
50.3312 0.458
50.3619 0.458
50.3925 0.469
50.4232 0.635
50.4539 0.510
50.4846 0.698
50.5153 0.656
50.5459 0.500
50.5766 0.521
50.6073 0.510
50.6380 0.510
50.6686 0.604
50.6993 0.531
50.7300 0.490
50.7607 0.542
50.7914 0.656
50.8220 0.510
50.8527 0.542
50.8834 0.729
50.9141 0.583
50.9448 0.521
50.9754 0.646
51.0061 0.667
51.0368 0.833
51.0675 0.802
51.0982 1.104
51.1288 1.167
51.1595 1.521
51.1902 1.646
51.2209 2.250
51.2515 3.562
51.2822 4.343
51.3129 4.468
51.3436 3.354
51.3743 2.802
51.4049 2.740
51.4356 2.562
51.4663 2.177
51.4970 1.542
51.5277 1.052
51.5583 0.865
51.5890 0.719
51.6197 0.635
51.6504 0.604
51.6811 0.573
51.7117 0.552
51.7424 0.583
51.7731 0.740
51.8038 0.542
51.8344 0.521
51.8651 0.521
51.8958 0.521
51.9265 0.604
51.9572 0.625
51.9878 0.583
52.0185 0.656
52.0492 0.740
52.0799 0.979
52.1106 0.771
52.1412 0.615
52.1719 0.667
52.2026 0.698
52.2333 0.740
52.2640 0.635
52.2946 0.646
52.3253 0.594
52.3560 0.458
52.3867 0.500
52.4173 0.500
52.4480 0.458
52.4787 0.563
52.5094 0.490
52.5401 0.500
52.5707 0.552
52.6014 0.490
52.6321 0.458
52.6628 0.490
52.6935 0.562
52.7241 0.490
52.7548 0.448
52.7855 0.458
52.8162 0.563
52.8469 0.531
52.8775 0.458
52.9082 0.490
52.9389 0.583
52.9696 0.677
53.0002 0.479
53.0309 0.469
53.0616 0.417
53.0923 0.531
53.1230 0.448
53.1536 0.490
53.1843 0.490
53.2150 0.469
53.2457 0.500
53.2764 0.500
53.3070 0.531
53.3377 0.417
53.3684 0.531
53.3991 0.396
53.4298 0.406
53.4604 0.656
53.4911 0.573
53.5218 0.469
53.5525 0.542
53.5831 0.469
53.6138 0.604
53.6445 0.490
53.6752 0.406
53.7059 0.438
53.7365 0.427
53.7672 0.531
53.7979 0.417
53.8286 0.438
53.8593 0.385
53.8899 0.458
53.9206 0.573
53.9513 0.510
53.9820 0.271
54.0127 0.479
54.0433 0.323
54.0740 0.396
54.1047 0.562
54.1354 0.458
54.1660 0.573
54.1967 0.510
54.2274 0.458
54.2581 0.677
54.2888 0.604
54.3194 0.604
54.3501 0.427
54.3808 0.490
54.4115 0.438
54.4422 0.448
54.4728 0.625
54.5035 0.479
54.5342 0.729
54.5649 0.688
54.5956 0.781
54.6262 0.688
54.6569 0.667
54.6876 0.719
54.7183 0.792
54.7489 0.813
54.7796 0.969
54.8103 0.937
54.8410 1.062
54.8717 1.312
54.9023 1.375
54.9330 1.656
54.9637 2.469
54.9944 2.937
55.0251 4.302
55.0557 6.531
55.0864 9.865
55.1171 13.250
55.1478 12.343
55.1785 9.301
55.2091 6.718
55.2398 7.468
55.2705 8.271
55.3012 6.417
55.3318 4.261
55.3625 2.406
55.3932 1.760
55.4239 1.573
55.4546 1.344
55.4852 0.885
55.5159 0.729
55.5466 0.646
55.5773 0.781
55.6080 0.604
55.6386 0.677
55.6693 0.646
55.7000 0.583
55.7307 0.625
55.7614 0.583
55.7920 0.385
55.8227 0.396
55.8534 0.760
55.8841 0.573
55.9147 0.490
55.9454 0.510
55.9761 0.490
56.0068 0.469
56.0375 0.531
56.0681 0.562
56.0988 0.531
56.1295 0.635
56.1602 0.667
56.1909 0.573
56.2215 0.656
56.2522 0.458
56.2829 0.542
56.3136 0.573
56.3443 0.438
56.3749 0.396
56.4056 0.417
56.4363 0.594
56.4670 0.531
56.4976 0.479
56.5283 0.479
56.5590 0.573
56.5897 0.521
56.6204 0.490
56.6510 0.542
56.6817 0.531
56.7124 0.604
56.7431 0.448
56.7738 0.417
56.8044 0.552
56.8351 0.479
56.8658 0.479
56.8965 0.552
56.9272 0.500
56.9578 0.604
56.9885 0.646
57.0192 0.458
57.0499 0.594
57.0805 0.521
57.1112 0.531
57.1419 0.615
57.1726 0.635
57.2033 0.792
57.2339 0.844
57.2646 0.802
57.2953 1.156
57.3260 1.396
57.3567 1.312
57.3873 1.000
57.4180 0.865
57.4487 0.958
57.4794 1.083
57.5101 0.979
57.5407 0.906
57.5714 0.719
57.6021 0.740
57.6328 0.844
57.6634 0.833
57.6941 0.708
57.7248 0.760
57.7555 0.823
57.7862 0.885
57.8168 1.302
57.8475 1.052
57.8782 1.760
57.9089 1.719
57.9396 2.052
57.9702 3.104
58.0009 4.146
58.0316 6.208
58.0623 7.093
58.0930 5.948
58.1236 4.708
58.1543 4.094
58.1850 4.312
58.2157 3.583
58.2463 3.583
58.2770 2.291
58.3077 1.698
58.3384 1.281
58.3691 1.073
58.3997 0.937
58.4304 0.906
58.4611 0.688
58.4918 0.740
58.5225 0.583
58.5531 0.615
58.5838 0.500
58.6145 0.542
58.6452 0.510
58.6759 0.396
58.7065 0.552
58.7372 0.604
58.7679 0.552
58.7986 0.656
58.8292 0.448
58.8599 0.417
58.8906 0.646
58.9213 0.490
58.9520 0.479
58.9826 0.417
59.0133 0.354
59.0440 0.542
59.0747 0.490
59.1054 0.437
59.1360 0.344
59.1667 0.573
59.1974 0.375
59.2281 0.406
59.2588 0.479
59.2894 0.729
59.3201 0.604
59.3508 0.521
59.3815 0.458
59.4121 0.448
59.4428 0.458
59.4735 0.490
59.5042 0.479
59.5349 0.521
59.5655 0.552
59.5962 0.427
59.6269 0.510
59.6576 0.469
59.6883 0.594
59.7189 0.469
59.7496 0.510
59.7803 0.677
59.8110 0.458
59.8417 0.521
59.8723 0.323
59.9030 0.542
59.9337 0.448
59.9644 0.531
59.9950 0.531
60.0257 0.437
60.0564 0.490
60.0871 0.708
60.1178 0.458
60.1484 0.490
60.1791 0.573
60.2098 0.583
60.2405 0.552
60.2712 0.531
60.3018 0.656
60.3325 0.542
60.3632 0.583
60.3939 0.677
60.4246 0.729
60.4552 0.781
60.4859 0.656
60.5166 0.604
60.5473 0.854
60.5779 0.958
60.6086 1.167
60.6393 1.146
60.6700 1.292
60.7007 1.573
60.7313 2.208
60.7620 2.364
60.7927 3.167
60.8234 4.573
60.8541 7.520
60.8847 11.062
60.9154 13.145
60.9461 9.636
60.9768 7.084
61.0075 6.156
61.0381 7.020
61.0688 7.864
61.0995 6.468
61.1302 4.406
61.1608 2.865
61.1915 2.021
61.2222 1.364
61.2529 1.406
61.2836 1.062
61.3142 0.885
61.3449 0.865
61.3756 0.729
61.4063 0.719
61.4370 0.625
61.4676 0.740
61.4983 0.385
61.5290 0.615
61.5597 0.667
61.5904 0.646
61.6210 0.594
61.6517 0.365
61.6824 0.583
61.7131 0.531
61.7437 0.469
61.7744 0.594
61.8051 0.448
61.8358 0.583
61.8665 0.438
61.8971 0.396
61.9278 0.573
61.9585 0.479
61.9892 0.417
62.0199 0.719
62.0505 0.521
62.0812 0.365
62.1119 0.588
62.1426 0.584
62.1733 0.504
62.2039 0.650
62.2346 0.504
62.2653 0.521
62.2960 0.415
62.3266 0.657
62.3573 0.596
62.3880 0.417
62.4187 0.516
62.4494 0.653
62.4800 0.601
62.5107 0.632
62.5414 0.628
62.5721 0.573
62.6028 0.568
62.6334 0.626
62.6641 0.595
62.6948 0.551
62.7255 0.944
62.7562 0.848
62.7868 1.092
62.8175 0.955
62.8482 0.786
62.8789 1.267
62.9095 1.415
62.9402 1.919
62.9709 2.439
63.0016 2.279
63.0323 2.237
63.0629 1.868
63.0936 1.644
63.1243 1.526
63.1550 1.437
63.1857 1.776
63.2163 1.249
63.2470 0.807
63.2777 0.891
63.3084 0.711
63.3391 0.652
63.3697 0.627
63.4004 0.732
63.4311 0.766
63.4618 0.371
63.4924 0.577
63.5231 0.447
63.5538 0.725
63.5845 0.550
63.6152 0.411
63.6458 0.685
63.6765 0.452
63.7072 0.670
63.7379 0.568
63.7686 0.558
63.7992 0.547
63.8299 0.433
63.8606 0.654
63.8913 0.671
63.9220 0.414
63.9526 0.255
63.9833 0.467
64.0140 0.481
64.0447 0.217
64.0753 0.288
64.1060 0.529
64.1367 0.308
64.1674 0.319
64.1981 0.367
64.2287 0.305
64.2594 0.238
64.2901 0.371
64.3208 0.172
64.3515 0.315
64.3821 0.188
64.4128 0.346
64.4435 0.104
64.4742 0.274
64.5049 0.406
64.5355 0.246
64.5662 0.131
64.5969 0.140
64.6276 0.151
64.6582 0.163
64.6889 0.000
64.7196 0.000
64.7503 0.108
64.7810 0.121
64.8116 0.000
64.8423 0.000
64.8730 0.000
64.9037 0.000
64.9344 0.000
64.9650 0.000
64.9957 0.000
